Chain,AA,PSI,PHI
A,G,145.12528583525162,-134.1698162821564
A,I,157.03445539204398,-127.2690575445806
A,V,148.80348313715118,-151.67368970722893
A,G,136.62833961686994,-147.12845368211507
A,I,122.22718345647968,-133.49612226407518
A,A,94.81067474434018,-105.6518053905465
A,G,-173.57511112809237,-108.59353277610421
A,V,13.844633881430282,-118.18972956704837
A,M,162.94879415605126,-161.00347309329277
A,P,130.74173474626735,-41.974323801354195
A,V,-10.31770923280888,-105.72337566853466
A,N,-49.57663513084906,-49.03461568299394
A,Q,-40.76276576643878,-68.88592756615957
A,S,-40.123998847599154,-62.853813647587955
A,I,-44.05677076640015,-66.77384661924403
A,Y,-46.392618010238024,-56.337507736009925
A,D,-44.771933716699905,-64.72452641945868
A,A,-40.24014641186935,-61.631181571398834
A,L,-30.20884643006208,-67.77139400402521
A,T,-28.674322258789108,-67.23406818675598
A,V,-5.65830895830399,-89.77734947458954
A,L,11.687511126952046,-108.8329707031212
A,Q,-32.45738433087553,-58.05652876487395
A,H,-11.23062326859287,-64.49581820702346
A,R,-8.030108956491514,-86.1215283391002
A,G,126.71612748161756,170.82222856384945
A,Q,9.02824123384587,-119.3793534825265
A,D,-33.46150268037101,-80.75359817812601
A,A,163.86937817687027,-160.33744612448942
A,A,154.76410378399225,-146.6495884777257
A,G,142.1319662606077,-152.63972975412116
A,I,133.93490551723156,-134.36280677812422
A,I,129.54825057806727,-135.433110020754
A,T,162.4829810466223,-123.41155016772699
A,I,126.33895054926342,-104.11028055394063
A,D,179.40118631890863,-87.51246985098582
A,A,-18.199748469168256,-58.32234426582225
A,N,5.173613513115779,-98.45161630243857
A,N,46.14159022197881,63.628770994120245
A,C,146.9693623444943,-131.8788975311496
A,F,143.0295423775441,-85.0618187618606
A,R,126.78235153155543,-122.70576444116237
A,L,146.9208958957007,-131.27657548517047
A,R,120.48242240298534,-147.33052245816162
A,K,143.30995883516775,-150.67351553783462
A,A,168.81519383381428,-172.7225193269624
A,N,152.05357552803918,-69.23540567665971
A,G,171.88458734779178,112.99662700241561
A,L,157.7950899557291,-67.69604756349857
A,V,-48.24542748330972,-54.371450196393894
A,S,-15.711719016620297,-60.99185084593744
A,D,-25.861007348586416,-102.73479042302948
A,V,-39.28651471298854,-76.8112274484072
A,F,101.04830383526631,-103.25539972650138
A,E,167.5726669870158,-91.48468539507732
A,A,-41.05068988278483,-50.28323767709638
A,R,-36.78237800756842,-63.96448796015774
A,H,-39.913002848740774,-69.07703774203806
A,M,-41.425832913788554,-60.37613409020019
A,Q,-36.45432388591099,-60.07474544705725
A,R,-27.058025971842703,-74.21928294873858
A,L,70.18451931663793,-80.43178352110583
A,Q,149.06059833786475,-91.12514877993172
A,G,167.31831455642597,133.40422220703715
A,N,6.596892626805337,-102.67709212445644
A,M,137.90794635637715,-141.61674250299598
A,G,164.33952220722136,-171.91052337987594
A,I,160.3078453383433,-132.30621551960314
A,G,162.89661173263093,-139.89642512964403
A,H,143.04943552572124,-150.41666724107125
A,V,126.79409822326656,-127.37538591963877
A,R,137.71169523914244,-95.50404856195159
A,Y,111.57063803014995,-115.84668773764277
A,P,136.33825099246366,-47.33425114900189
A,T,177.47325670666913,-143.40259177504012
A,A,125.90052348766204,-67.41698511789713
A,G,-34.43320845722742,101.58170777173908
A,S,75.35663768038656,-120.99942243247025
A,S,166.58201086970604,-71.83415512214535
A,S,-22.21775051505018,-60.10339214771654
A,A,-18.778538860762417,-87.70582869585355
A,S,160.58861049435163,-82.27150382592566
A,E,132.91524345580586,-58.31396707697769
A,A,-179.46052045716317,-86.32475159542666
A,Q,161.99027260095153,-99.9022379186676
A,P,152.89117459098682,-72.03280247747477
A,F,167.95288288971966,-91.35123230063343
A,Y,152.34461900244534,-145.52272679173188
A,V,150.29857138393135,-139.6955243533467
A,N,-9.097794962106102,-97.77299694155198
A,S,141.59284305237412,-144.3389825293134
A,P,147.6443304231057,-81.35589603782846
A,Y,-32.633941896526736,65.70040815987534
A,G,109.29205051694095,109.89842564402018
A,I,136.02028671635367,-135.36995100799433
A,T,150.2247508305142,-125.93319019427408
A,L,141.17256251071404,-149.8657543270444
A,A,141.42308160787564,-120.19802716014532
A,H,138.68508211941085,-137.71869904292802
A,N,109.3140889269107,-119.96646869697138
A,G,-152.66420136792462,155.8246949785233
A,N,135.34663913492022,-167.91201182975635
A,L,124.06342716749491,-96.39122738210978
A,T,-16.565675520668833,-72.91779130822871
A,N,36.289354366265364,-117.02922450391449
A,A,-48.62565239277359,-56.331750464835594
A,H,-44.58766575355998,-58.149322268930135
A,E,-38.32068020389422,-66.50971259052207
A,L,-43.188338534903544,-62.51613738901006
A,R,-32.68245436522797,-63.2979502390614
A,K,-48.28147225509302,-71.01548154266851
A,K,-38.89897167482551,-62.1562597123561
A,L,-44.262457602491786,-64.07206762719474
A,F,-50.70259010655978,-67.14371034919145
A,E,-35.70428198932827,-71.72384592837409
A,E,-23.835330932525608,-97.88467890251196
A,K,-7.321801984192812,-123.79796722431496
A,R,33.12901339165667,58.395763277516316
A,R,120.79682678701558,-93.74432505141412
A,H,135.07599229813005,-86.94279515854106
A,I,120.19536267808668,-106.161132261304
A,N,-21.740279541875854,-89.44305577200696
A,T,-168.4441455247503,-108.84758642432301
A,T,14.637870740881231,-116.90799025962012
A,S,127.14391883766503,-79.57024375047665
A,D,-12.360848020339525,-70.27516106189994
A,S,-34.77454328076907,-71.82286526333127
A,E,-41.523506837428265,-67.42899350749583
A,I,-41.098593128690965,-64.17249496837505
A,L,-47.21826524184951,-59.6396446648039
A,L,-45.386833734671534,-57.197230378220375
A,N,-26.247079463302363,-67.96292189289295
A,I,-48.94975307344587,-73.37370074151369
A,F,-49.03596972211641,-56.982802698254865
A,A,-46.8408098713225,-56.65320522432156
A,S,-35.35489739807965,-60.5978926316902
A,E,-32.92987389810716,-76.6944176077939
A,L,-20.748911259670294,-71.91974027006428
A,D,7.412932283179915,-79.49095962065265
A,N,14.914937105818161,-94.39405982438682
A,F,134.12570891087344,-108.7376353013335
A,R,-58.58875071190287,-91.51250588749402
A,H,152.4068519396939,-59.977209062804256
A,Y,138.3365306732837,-134.01201962893307
A,P,179.98165748937126,-83.9464738612804
A,L,141.9106703247763,-75.01416154704117
A,E,166.07471589737918,-85.52338059386656
A,A,-33.950345985090095,-59.70269959014203
A,D,-36.28890602554617,-60.656651923828065
A,N,-36.70985319070052,-72.7085128490908
A,I,-43.4312385680883,-67.20255649570856
A,F,-38.125332797082905,-66.81970319417236
A,A,-39.60240629001388,-62.51722549623297
A,A,-41.935572871044634,-68.12247075304374
A,I,-40.821018593918,-64.272509348648
A,A,-43.19004149132305,-63.24710533944194
A,A,-36.41173974893881,-63.72085843657833
A,T,-43.5698916814753,-65.3962308522253
A,N,-22.826383917805025,-62.82133211450969
A,R,-15.767448233865544,-84.07009649833739
A,L,-48.58461023390363,-99.66132126070217
A,I,154.84071071090858,-84.84312946634907
A,R,142.58855709740467,-137.9053738104946
A,G,-145.78486258202747,141.1634827369775
A,A,144.66281598023633,-126.77692387796363
A,Y,132.3397182945939,-172.35333372688044
A,A,117.36351878122372,-118.78913557502185
A,C,152.66489504057193,-128.90059934653257
A,V,137.5145332643383,-139.91417641052686
A,A,170.26742289907742,-146.16970695359112
A,M,141.4170908311749,-138.40954708740864
A,I,122.34250921685324,-120.09136672934558
A,I,137.27784707261384,-56.566324609461375
A,G,2.3736710937403562,74.58612047105451
A,H,-62.62772567766563,-123.79846641853675
A,G,-153.50135708543525,147.85218406431042
A,M,138.7965374733902,-108.97810046583427
A,V,150.21536399549296,-126.31809204003073
A,A,137.1229505531221,-142.53922250072262
A,F,155.21171798895182,-149.94378938487284
A,R,148.39610999509142,-122.78389523202179
A,D,154.83755444556652,-57.86924356576396
A,P,-5.683324766378532,-63.68407357977691
A,N,0.2679119892407432,-111.2412801376954
A,G,39.32928406372053,54.658700537971676
A,I,-57.187513550215456,-74.79918840148706
A,R,141.57014579251387,-80.67156836545149
A,P,144.8369847108176,-72.53019880682992
A,L,117.49046572649861,-167.0271286717481
A,V,160.01380986903084,-114.73320741418534
A,L,138.48138273693422,-119.58181968179247
A,G,169.0386173984122,-139.60413600965182
A,K,158.9321870158025,-140.85292194974545
A,R,111.16728544690831,-138.84475463420708
A,D,115.34655716854718,-76.40552750852963
A,I,-38.776780169141816,-87.82441017985511
A,D,-169.8705319291909,-160.75384902913373
A,E,-35.063928363587245,-54.361215908372856
A,N,-4.605255025922251,-112.42417106358079
A,R,120.23382459629151,-120.83641159893074
A,T,127.80879940964425,-130.49837128398255
A,E,151.94040998986353,-95.54413975652395
A,Y,155.33244231896117,-126.69413192270831
A,M,151.30617035098126,-155.737539669043
A,V,146.56793760276085,-127.60364638655714
A,A,158.0919454607672,-151.34072486216706
A,S,-36.74429254758988,-62.686163323401395
A,E,149.62814332956737,-132.1965071789183
A,S,-21.27636221344145,-60.721782713618026
A,V,-28.044157909882244,-60.7597507542996
A,A,-34.885191638517554,-68.6507732406049
A,L,-45.844671574290786,-71.74750514925286
A,D,-49.69595957167273,-55.69659926217334
A,T,-22.934044388595822,-61.46893566337413
A,L,-2.9210982236582,-102.17453035615651
A,G,18.556647136367896,81.65341357430543
A,F,145.5224935853457,-84.57726812503695
A,D,135.21419754612396,-88.2691316059135
A,F,133.2795594330666,-71.00546002521804
A,L,-62.984169982275404,-105.32232480045836
A,R,170.7537523447933,-174.306768546946
A,D,152.3316828795153,-76.2241520200756
A,V,123.36138610466874,-78.91053396113321
A,A,157.27445051784068,-59.26895731991375
A,P,136.10385742166207,-60.864850219590075
A,G,-9.598859325673526,73.58448303114737
A,E,152.88017279753626,-75.6953878871605
A,A,145.03843117467807,-129.28327652690515
A,I,132.0101102870537,-120.78019466389236
A,Y,124.67738970982137,-130.2845675624184
A,I,116.54410596798391,-124.01724449943865
A,T,169.4998056609107,-70.54483005901923
A,E,-36.65357165454222,-47.25085556427064
A,E,-1.8487053558050173,-84.26663613291028
A,G,22.90453395826441,81.76290187555732
A,Q,126.00842594861504,-95.05540465519387
A,L,132.9623045791387,-90.99957185715515
A,F,148.41069274031943,-129.9292524575726
A,T,148.57830591938944,-138.2528254099721
A,R,134.79778585808592,-160.1775499030645
A,Q,121.33035087276282,-73.6377201617996
A,C,22.488466065313933,-115.72054045181677
A,A,156.85091960407044,-143.01098010543467
A,D,147.87789291465248,-90.79342694977244
A,N,52.625087990565355,46.15093595421698
A,P,143.41059435741923,-71.37447043817046
A,V,158.43657727025254,-144.28842548049016
A,S,110.21795868400277,-98.10611600262494
A,N,64.39127740743268,-130.08585720628062
A,P,143.63272030120024,-59.4379145876951
A,C,118.44273683284345,-59.37776607384733
A,L,-27.226618495226138,-70.81761639730009
A,F,-38.56884093483432,-62.46610257338919
A,E,-43.802658633126235,-52.05812745165152
A,Y,-35.39417717260253,-66.84684982486655
A,V,-54.97434353845719,-61.624911489099134
A,Y,-13.45079315419393,-152.40453476670763
A,F,-51.83011832783357,-67.41622559300225
A,A,165.7813594183848,-77.04248422019933
A,R,146.57570563327144,-80.01856157104216
A,P,-22.513684998325395,-63.38266193318822
A,D,0.5069171076128571,-88.17916243904924
A,S,153.53486980084267,-85.29239761463315
A,F,107.44615518127374,-119.59309843827268
A,I,119.81409467110399,-107.50796001039724
A,D,54.105649536206585,51.11033197650278
A,K,8.133390356821057,64.82013699233511
A,I,125.73447332753874,-110.78997951261869
A,S,121.7443737884591,-71.79959626009678
A,V,-41.081734630064545,-60.33413750144881
A,Y,-49.94212957223732,-59.966868918611056
A,S,-36.64012213176946,-65.76922017859017
A,A,-37.02141240080717,-64.33594905425842
A,R,-38.058838608093104,-68.99954602440916
A,V,-43.36562552570947,-61.88365762923132
A,N,-33.2234854929261,-58.421444600925355
A,M,-40.636729268144066,-65.81138384821921
A,G,-35.75428980643234,-66.34860323312648
A,T,-47.615314196323965,-62.98459437400865
A,K,-49.25895965892599,-64.16050338166201
A,L,-35.97945331820004,-63.51066897901575
A,G,-44.39517797137126,-63.73197235951901
A,E,-39.67002081289954,-64.82662467223439
A,K,-43.614089562660666,-64.54200177789649
A,I,-45.96522651682683,-64.32678720273854
A,A,-26.035058702052915,-59.4115848684183
A,R,-49.710641839294524,-88.54045457423841
A,E,-19.411136572510028,-84.31499125415284
A,W,33.872046901397084,-120.56538737787976
A,E,-43.237020407080436,-54.160304402621165
A,D,-2.7065123248316674,-83.21231679906998
A,L,146.76448371034994,-75.40489009628995
A,D,108.56026654032686,-92.2280942360283
A,I,126.42178844642186,-122.43855791047679
A,D,-29.126870858603603,-93.80440811207745
A,V,153.73630278892168,-161.05809708479234
A,V,128.3396881927948,-109.12975575061817
A,I,116.98121153655734,-127.21453574882341
A,P,155.6132784502679,-78.33510367110875
A,I,110.19256014053867,-100.53521683628932
A,P,151.37110461446213,-55.21041875610298
A,E,-27.449848583834765,-114.55108949093724
A,T,-40.52314950804543,-54.923289425335874
A,S,-11.82907543362621,-70.12311683916123
A,C,-47.325394366199546,-53.283756846669576
A,D,-40.137791732270756,-70.0482275222669
A,I,-47.17472149607963,-60.72892952227222
A,A,-32.01536416773805,-67.34412537756936
A,L,-45.44414649004554,-64.03510841794593
A,E,-41.27893037753615,-61.821993985584584
A,I,-46.49518966155346,-60.53054782031347
A,A,-39.3182885571276,-61.537144011552925
A,R,-51.49499988574766,-62.61742987895135
A,I,-49.03069571294688,-57.36894180983812
A,L,-9.445929360683474,-73.2117093920552
A,G,34.89488666795442,63.104906968246645
A,K,155.5159971852904,-118.30188654000365
A,P,146.4306992720896,-74.43117600395256
A,Y,129.97945095331968,-102.67874478042951
A,R,142.18022520785271,-136.195126107861
A,Q,83.68506264943811,-77.92031245563193
A,G,-24.54733139087711,-83.2977533446554
A,F,133.18691068637742,-120.77840901075538
A,V,121.9527257988041,-115.41996513659679
A,K,129.11266461167173,-76.71619108473713
A,N,109.19350125712022,-75.95823660802806
A,R,-28.238272267720074,-62.78520251433488
A,Y,117.63146856002959,-111.90989302798249
A,V,140.88889400233947,-117.91400734252807
A,G,-178.92375194004208,-113.19056299766656
A,R,169.28908654681723,-98.01480060532192
A,T,132.4845913309121,-107.78277490987132
A,F,138.39508907217706,-99.9926376714625
A,I,92.92795859245511,-88.00553876058541
A,M,151.1436569782057,-101.3647627371154
A,P,129.72481662877425,-68.04107427355562
A,G,-37.707335051737395,83.20116380649995
A,Q,136.73517062531442,-71.50194637281263
A,Q,126.94575330845018,-75.18488092019922
A,L,105.15479527742006,-84.70112313356337
A,R,161.04581625360066,-105.90059181940025
A,R,135.08372685291624,21.250307876412304
A,K,110.85860326346814,-98.82183440884862
A,S,157.40368507714948,-113.99991632372881
A,V,-16.585293384091504,-94.17551587610966
A,R,-21.49259246052994,-66.1726190759724
A,R,-27.72801847071313,-73.5553522526024
A,K,-17.645372598832623,-102.01793003771047
A,L,141.67719679569097,-143.855016402322
A,N,142.3315170765482,-121.90326458625452
A,A,126.35653500474533,-98.38272642909777
A,N,105.11096257695215,-77.35711654352227
A,R,-51.53657703669036,-46.61836965365721
A,A,-19.8826378611187,-57.281563741898566
A,E,-8.181803126996629,-86.42969529390054
A,F,-25.04362156743611,-112.47830461760324
A,R,114.64401497171741,-46.27015121667328
A,D,38.09723091151445,54.38178360187115
A,K,155.4340314061148,-124.57025547540763
A,N,113.30883550088147,-99.6243428495319
A,V,137.70020237030417,-106.60356977461575
A,L,108.0949508530724,-104.83229594026542
A,L,140.20950001790558,-88.18263709457015
A,V,130.09153411532225,-119.89594396876916
A,D,157.3647042279696,-128.72648707019812
A,D,-34.98649303859939,-68.82257447414395
A,S,172.8057143668855,-171.17109710530164
A,I,125.0234031337409,-131.81939666279172
A,V,-83.92453262588344,-113.58613177130712
A,R,-27.21567116300748,-79.61029202120602
A,G,-6.329817228391983,85.67511758589806
A,T,-54.46905738658276,-60.78280653591953
A,T,-46.15432348165578,-63.436096970673646
A,S,-37.95329688701206,-55.71610759653904
A,E,-48.02780147782888,-59.59907049190397
A,Q,-35.32266652270517,-70.40451752935854
A,I,-46.18598011437525,-64.91385681857497
A,I,-38.31777476647338,-60.47019324293772
A,E,-44.74430780282991,-62.124886370930774
A,M,-36.55548960622705,-62.17441889139689
A,A,-43.73742026870884,-62.29333410698154
A,R,-46.52216788060096,-63.877844986515946
A,E,-36.71668727558335,-54.96418678416686
A,A,2.4726191752647946,-75.69160586088272
A,G,14.221961776364283,96.39626314026599
A,A,142.13160462310898,-70.6067698676267
A,K,-81.86487460135902,-82.90683056543459
A,K,138.01756405361417,-98.26687961155348
A,V,117.55230622466308,-123.42708635360495
A,Y,150.82079369786626,-112.65811009097928
A,L,134.49481247994157,-132.61626115771764
A,A,135.32185691975616,-123.12018819625214
A,S,123.74722974471398,-108.69101661618782
A,A,-28.00432541569655,-60.7125096136846
A,A,155.9884310785323,-105.6606596939966
A,P,-178.70221746147718,-70.51177590509333
A,E,139.45594355870722,-61.219975103713494
A,I,101.81336709399712,-103.1504055717139
A,R,-22.200998595120797,-109.32932223321895
A,F,152.5765221960303,-120.5488952944235
A,P,147.27287153119875,-71.36303539747657
A,N,126.48222146331595,-94.46938109006864
A,V,18.287954438302044,-113.04355704488937
A,Y,13.844058197359365,-112.64039710929212
A,G,-24.49196449557144,126.39398593659608
A,I,129.45837216215875,-88.62382997146767
A,D,124.74589654298767,-74.59094461637349
A,M,151.90753705791752,-139.5798620369153
A,P,173.99831184370188,-78.98547371318843
A,S,154.1271833755897,-65.67167495078519
A,A,-35.899745493837656,-43.09943383748242
A,T,-33.87335730791641,-64.51849628379252
A,E,0.8393152817455933,-86.03727675940335
A,L,110.05909073561232,-91.89941635444983
A,I,-40.52788462291916,-49.30761550593135
A,A,-13.948899614793552,-73.8828402084048
A,H,114.48535849856222,-67.99026187263343
A,G,14.641048828768861,77.89466887550172
A,R,149.22638063924134,-131.6414860715081
A,E,166.27073906368858,-91.94218912512626
A,V,-51.82790969874996,-52.032819571373146
A,D,-41.05498978878359,-57.729194834777545
A,E,-41.13801802168024,-66.20446783669512
A,I,-44.829668822496664,-60.534128418752374
A,R,-43.17507480367528,-57.83207671378178
A,Q,-37.42116598578419,-68.0353201897499
A,I,-49.83583789557016,-63.495781102823166
A,I,-7.38834824299934,-76.72344379593859
A,G,33.81768897434812,70.40814577241093
A,A,156.44457892274423,-91.41200455627059
A,D,-17.866559758952107,-81.51565108864877
A,G,145.37811841994775,-165.5494615028947
A,L,132.32409207118815,-140.3204220869231
A,I,133.19110675281155,-140.0848778495245
A,F,152.186699987939,-110.69136238004303
A,Q,141.7287422320902,-66.47231908890502
A,D,141.14318790501366,-77.06726259578248
A,L,-46.86527803608088,-54.634391653228704
A,N,-22.237631945309353,-64.09829642588677
A,D,-37.39787503019208,-79.6827646501647
A,L,-47.05744854318875,-63.117472405231844
A,I,-46.878562807553344,-55.01895385122657
A,D,-30.87140042227085,-69.08888781784682
A,A,-42.14190770508787,-63.08329201831395
A,V,-47.73743581820649,-79.82559130394715
A,R,-33.14662194506512,-60.702470484701394
A,A,-32.87677798918697,-53.92640363388036
A,E,-27.919741189639538,-73.74393860765974
A,N,87.10334116258555,-151.8897960483663
A,P,-7.237125229314333,-61.59534091904539
A,D,-23.028973503077722,-71.68573954041852
A,I,123.31623016355697,-77.55428185843671
A,Q,-42.90442995996558,-90.16325315730805
A,Q,141.24726554578328,-142.6818031919338
A,F,170.10405168783447,-105.11320303555031
A,E,110.83640945625372,-84.00697797410454
A,C,19.919629764053482,-120.12278344569418
A,S,-40.50409351845886,-48.93332276510496
A,V,-19.19661250385523,-64.606688597115
A,F,-45.85987697369713,-96.92299852465126
A,N,-8.082064696474054,-110.23400130765152
A,G,15.535058864424448,75.32355502039086
A,V,109.05188440419003,-104.71809935944314
A,Y,112.02627416519441,-97.53307492762134
A,V,-29.081385989453345,-53.13110018923741
A,T,-0.9800210277397203,-77.48123051350365
A,K,35.93221311659371,48.29479826673624
A,D,23.51861663028004,-134.49255548963015
A,V,124.60029680359654,-112.1366409285832
A,D,175.60448297962756,-142.30769368493205
A,Q,-39.44364427251038,-55.72300103672517
A,G,-48.56582825149596,-52.82473185366213
A,Y,-46.19024126115959,-63.812632881767804
A,L,-33.24771217915053,-61.30797349139166
A,D,-38.67156629847761,-70.26433984107886
A,F,-45.98704085304982,-58.57115279113632
A,L,-36.70865105542656,-59.17124818945115
A,D,-36.620937965198046,-64.99856375614235
A,T,-32.33926193773762,-65.3891358540215
A,L,-45.423229602015866,-65.44621843766909
A,R,-39.509908840498824,-58.96381981146426
A,N,-37.01558205824189,-62.647339446608456
A,D,-36.31885594358775,-75.5156548795171
A,D,-38.04828420906154,-64.67895294305558
A,A,-53.98138890565123,-63.12290928362742
A,K,-35.94236134968232,-53.06378549957913
A,A,-47.68867671685128,-71.21974355347788
A,V,-35.44004726119927,-70.47213109947933
A,Q,-44.9117361280621,-59.295713504299435
A,R,-39.92055185950119,-54.92563758782573
A,Q,-84.33095237214899,-87.82085026161846
B,G,145.28315604197067,-136.02451540586551
B,I,157.64389008931872,-128.11954546021613
B,V,146.02129058837676,-153.34108230189284
B,G,131.7765006351504,-146.58171146432883
B,I,126.85668679239383,-131.79073003071457
B,A,93.17866028614243,-111.02445494587317
B,G,-168.99452712837174,-110.01480610622895
B,V,-1.9614001737264162,-115.68957780933576
B,M,166.6627583673319,-138.75568435226424
B,P,127.00393194134412,-43.85861336891194
B,V,-4.819984382391197,-100.32236332435116
B,N,-49.60974317501705,-57.78499757845805
B,Q,-42.16247839674313,-64.46927117806885
B,S,-39.15117464444461,-64.04141693110523
B,I,-41.865897184566045,-68.30024966034831
B,Y,-43.43155350507509,-58.604474514742435
B,D,-41.61947867108525,-67.57889505110604
B,A,-46.412790215511734,-59.45053351710188
B,L,-36.930512276093395,-60.96003331723257
B,T,-33.04013824027324,-59.27258336465067
B,V,-5.215960699952899,-88.5205858086382
B,L,-0.9953975915003788,-107.73270568025579
B,Q,-29.28760171227184,-51.57563978480522
B,H,-12.139381333626933,-66.70390854883581
B,R,-1.8581383270523508,-86.80695196116419
B,G,125.64314945888817,164.31799450972437
B,Q,10.891196987198084,-116.73158169170432
B,D,-43.96515591218182,-74.66828346711249
B,A,171.91937366148443,-152.1412921822986
B,A,150.61845626260867,-152.09585425822746
B,G,143.29445882975907,-150.43010089483434
B,I,132.85661908841794,-136.41819470455502
B,I,141.45871803730728,-132.81146595180445
B,T,167.23126355379202,-130.64605254939195
B,I,119.1134816274515,-112.86540508494457
B,D,-175.15368057214766,-81.64294611952857
B,A,-20.021821840310615,-62.496266664591886
B,N,18.224281343756807,-99.55994071361009
B,N,47.02528946347719,56.83800123925841
B,C,150.81853866403182,-133.2595826950448
B,F,146.79167587815905,-81.19562237500124
B,R,130.57686041364084,-129.0962884201787
B,L,145.1036305104322,-141.06430505798517
B,R,113.25933794645039,-147.96010479277712
B,K,145.06342783485215,-142.69877138861497
B,A,172.94697514948928,-172.35828360027523
B,N,153.2243096510386,-71.41790363629217
B,G,169.74472709068408,113.34719920753983
B,L,160.66610875674928,-68.90236896352786
B,V,-47.76873013198634,-52.85852653252307
B,S,-23.609254097635002,-59.49857530668466
B,D,-35.21895839241779,-95.0954532796642
B,V,-43.068859190267524,-67.05444944975848
B,F,111.22391214218511,-102.35696350513223
B,E,170.63911892548515,-106.0951028285442
B,A,-45.24760581690106,-49.82391451328689
B,R,-25.773404467701578,-62.72827522869761
B,H,-43.54345667006444,-81.70607646519804
B,M,-33.65447578152101,-62.17821126817881
B,Q,-39.42255526531239,-63.11357352421541
B,R,-22.43940253460319,-78.04354464511954
B,L,66.8299895902282,-80.18999900563922
B,Q,159.0798572623562,-89.80597491013262
B,G,163.120327397733,122.561939366121
B,N,8.553956168214143,-101.59084133612882
B,M,139.98346870541812,-145.0359082116192
B,G,165.4585732823769,-172.0613998656808
B,I,157.92709835880297,-130.85336377717067
B,G,163.25951326530378,-140.21508824595224
B,H,141.5037784346435,-154.8497509725748
B,V,137.70099764209502,-123.05562697872483
B,R,136.75222595138374,-105.31938642849384
B,Y,123.93630430429722,-111.51305040355288
B,P,132.9325460715117,-70.2212304797812
B,T,171.73166690374643,-138.88225783265335
B,A,119.17366738776123,-54.39154080886999
B,G,-9.455480797964896,100.46444431923653
B,S,75.28980049283793,-140.92288767243687
B,S,172.22527361499812,-81.13617331985907
B,S,-33.56974048965946,-58.40102527839287
B,A,-33.04775995497224,-68.27401995718037
B,S,170.86283167326846,-72.29665726487036
B,E,136.18923563815156,-68.69204184274376
B,A,175.1856482948157,-88.52209720489924
B,Q,165.10719645122444,-96.3286477722281
B,P,152.5733800453315,-76.28384472593004
B,F,168.09992125579052,-87.08437877578477
B,Y,151.41003711214637,-148.46034447355103
B,V,148.90261005409718,-142.41892862482064
B,N,-9.811268530606663,-99.21389317345337
B,S,137.99397360430154,-141.0832824240822
B,P,151.31824436664368,-85.5270088545468
B,Y,-40.140491905556665,67.3975416732485
B,G,107.6408358139719,116.68674597532818
B,I,135.22492847342002,-133.9832336613296
B,T,146.02801317956394,-128.59707373905658
B,L,152.1941376602376,-145.71868317795233
B,A,140.1802238948555,-131.78939820543383
B,H,139.0407662990916,-141.5307908350812
B,N,112.71121942464688,-120.9022872745876
B,G,-155.23300024816527,152.85280673400516
B,N,132.44302108274232,-163.8444935954942
B,L,115.04889274409612,-92.16509135391355
B,T,-8.531359924441674,-72.36639370126524
B,N,30.4506787243872,-122.37769458463049
B,A,-41.62522828141424,-53.08877528450834
B,H,-54.03884209428406,-59.3847049001759
B,E,-42.883214562228474,-59.865217976509456
B,L,-39.9556211833224,-59.929820780102354
B,R,-40.68930709553126,-64.46332752495603
B,K,-48.386588152356886,-65.23286923460945
B,K,-43.02429532061168,-59.666494840659105
B,L,-39.022666270703645,-58.87633593682657
B,F,-55.73386134683531,-71.34161135228972
B,E,-50.68868635994464,-61.00538840151142
B,E,-37.360125957995415,-83.88267175794557
B,K,-6.152207508866648,-114.33350686358679
B,R,31.203812705419825,58.2300939692818
B,R,119.64333431283706,-92.6700932485418
B,H,135.1757993528668,-86.02632338105938
B,I,116.58736905196712,-107.49635575553023
B,N,-24.260096838006408,-82.2309396737431
B,T,-176.94177781518005,-114.0829976245427
B,T,11.419288627037213,-102.1229093111772
B,S,121.62318571259739,-82.48327406263502
B,D,-12.907975181015187,-64.92211420948671
B,S,-30.50004201304708,-72.55750099388759
B,E,-33.5462258824408,-73.96587578036551
B,I,-45.58128207988098,-68.62149595409579
B,L,-44.323475934362925,-56.22528828460176
B,L,-38.573531455316505,-62.240269723635414
B,N,-34.903645539197605,-71.20761851260325
B,I,-44.649541934797014,-64.9381707585146
B,F,-49.03526687791044,-58.86515982927048
B,A,-43.88557009024096,-59.6940983897893
B,S,-42.793923892869394,-64.94764509593372
B,E,-33.54416732665844,-62.3699138415459
B,L,-10.936674963495886,-75.029863503638
B,D,4.821072172449355,-85.66465954194686
B,N,10.463103077154551,-89.08761029228377
B,F,142.06363543989875,-115.28803166449428
B,R,48.815029892116335,-118.02973957921374
B,H,149.83374108049782,-154.78749756791666
B,Y,141.9352583249444,-132.0612971197713
B,P,178.57567802577844,-82.77228492784532
B,L,151.617728134168,-75.0550491444266
B,E,160.41694680508868,-95.05062070767441
B,A,-44.947999926647825,-52.066049831219125
B,D,-35.56462505102452,-56.41321507951083
B,N,-50.666032552502735,-69.23616632422606
B,I,-39.45727475398404,-57.31249193489657
B,F,-37.919738444730676,-69.42241620815408
B,A,-44.274645037140125,-58.03130236846975
B,A,-41.07880847070734,-62.87931870757616
B,I,-38.91458981367056,-67.21650008524479
B,A,-40.695345490763934,-64.70405600033318
B,A,-43.45622190735795,-63.82646679141386
B,T,-47.95124191321983,-58.016361045579515
B,N,-33.55146815981665,-59.143716456279
B,R,-28.891605934167007,-70.4291351785698
B,L,-45.47732354646101,-83.33397351541267
B,I,153.68876437760406,-88.6382757650819
B,R,151.59615619251832,-135.5817914729413
B,G,-138.71188863130797,128.14473004534773
B,A,140.68039004120178,-137.95603201242787
B,Y,143.2631602301366,-165.33185785476383
B,A,119.91698748070098,-128.52083601689992
B,C,153.14778446724162,-129.47215043834083
B,V,136.54908865902993,-138.24448216698036
B,A,170.49353223264632,-146.76629727400305
B,M,142.60968833471298,-139.9313507181071
B,I,119.39216686999048,-124.08263648018738
B,I,135.99080786211172,-56.425674827745155
B,G,2.333640395293721,78.91027986217654
B,H,-66.21846702373625,-129.80999965021152
B,G,-155.14546222882245,164.95295518442467
B,M,139.6786341220052,-115.90424612996416
B,V,156.28424615716384,-126.14662626072003
B,A,146.30662135842397,-146.02941282675732
B,F,159.40206411926647,-158.2821004649687
B,R,149.87371321857478,-131.9099769738178
B,D,157.60180356405954,-57.68059494786015
B,P,-16.984391616875943,-60.06391559352775
B,N,11.344128487620596,-105.61031437727105
B,G,39.66031379300364,47.49831417560053
B,I,-48.503593342425674,-75.33173900065205
B,R,143.7281857720859,-91.51259693770734
B,P,144.88499909105855,-74.0340702398245
B,L,120.71817347147667,-168.1386810794933
B,V,157.97242805047387,-123.24559050906412
B,L,138.64503745911233,-120.03946101910999
B,G,170.4785822730325,-140.46197152229115
B,K,165.07290058889112,-145.0135711208489
B,R,113.79408885088472,-145.5918594644363
B,D,138.02711120866877,-80.66507733357321
B,I,-46.171982338634706,-110.11119349444851
B,D,-171.5014100239079,-166.01497974374658
B,E,115.24114216070895,-55.97446405711727
B,N,49.84817117226988,54.08903185509062
B,R,88.42010096404944,-153.84057593863423
B,T,146.175364266687,-119.4497506640752
B,E,144.17717343036324,-103.79532751874433
B,Y,159.10277880769715,-120.4391831488615
B,M,147.17126634393344,-155.39891442055597
B,V,147.8440386537425,-129.6296251963766
B,A,164.8860964543428,-155.90974545833686
B,S,-35.28788707175639,-63.7560593282262
B,E,152.92507618975674,-134.69065557805777
B,S,-23.2934939533385,-66.17962469923688
B,V,-25.899551692662797,-59.308408366255236
B,A,-31.352804018731092,-71.53791180541315
B,L,-43.675244032867155,-75.17326672061796
B,D,-53.0719955641888,-55.81927816447547
B,T,-30.794287765896726,-60.91013916340806
B,L,6.007463946747349,-92.63826935728564
B,G,27.854018921647416,70.64989845319556
B,F,140.6739253016423,-91.75085525220072
B,D,120.9009809855504,-74.94105210559707
B,F,129.1663878884376,-66.65335974929828
B,L,-59.825424035983744,-98.60109726198428
B,R,171.52246507305895,-179.57820978591886
B,D,150.6306790385738,-74.36547940679502
B,V,133.30145694024492,-75.26142843373925
B,A,158.02278200257797,-71.0708425837205
B,P,134.9392475918273,-60.453847077932345
B,G,-3.7754502064876556,73.64251868636215
B,E,156.29099194665199,-81.78736972172192
B,A,146.570372364182,-125.95694791174502
B,I,148.03332425541186,-120.09628783446647
B,Y,123.86592778257653,-141.9164300124642
B,I,116.74372240461521,-120.72448317254923
B,T,163.1646282440868,-75.46673176893118
B,E,-26.85077825239305,-60.9885964896227
B,E,3.158714208226905,-84.2993083496555
B,G,17.70463037104589,88.16717376224433
B,Q,140.8566563055966,-94.5584612165594
B,L,134.18659556316362,-102.90583613746743
B,F,152.29304301236328,-141.2143146405416
B,T,165.5333871319815,-147.3872262028303
B,R,143.29176919639477,-170.9229468525711
B,Q,119.9354230565129,-78.4656451248075
B,C,24.17083782292785,-113.04506702919439
B,A,149.7384432098834,-131.54205572850066
B,D,-51.37039940697408,-68.02108050860555
B,N,72.66324489710507,-134.66676508708557
B,P,138.3795229758585,-65.10184326274272
B,V,155.3439218424016,-136.14848580638773
B,S,100.27854077922667,-101.90740763652684
B,N,68.11334758341842,-127.44476304126329
B,P,139.51175560601945,-57.90295468607857
B,C,122.65683668975988,-59.757400736673254
B,L,-21.538600605280315,-72.04025986694448
B,F,-37.65299768692665,-65.69577584197738
B,E,-42.91766014300959,-51.78145471226771
B,Y,-44.36776414030724,-66.58558178085308
B,V,-43.87447436323644,-58.22273649480545
B,Y,-19.589816591205086,-164.6452372497736
B,F,-42.09667019392766,-67.67724852478949
B,A,167.65534339386915,-85.81845873094267
B,R,140.11547029295463,-78.12028505672772
B,P,-25.120691524660618,-59.92662903898636
B,D,15.951887783228896,-85.42470044160633
B,S,152.4811716791853,-102.06848483382167
B,F,109.13782616422502,-118.31882340059948
B,I,113.89883197823191,-111.00443644352144
B,D,49.476948433114295,56.15638441392919
B,K,9.37555443348676,65.51952971394365
B,I,124.01777918000522,-108.44690856733385
B,S,126.50117590488715,-74.50228261486062
B,V,-42.29379717273538,-61.29333735571285
B,Y,-51.06819077778202,-58.515586877099146
B,S,-42.06420370827503,-62.742553401681434
B,A,-41.942648904196595,-58.35535897781721
B,R,-34.12885114304436,-69.10193534527914
B,V,-40.62496962997271,-66.419048098764
B,N,-32.35693369666799,-64.64476867296312
B,M,-36.26756023777859,-63.601144628578446
B,G,-43.85537600808938,-69.53357193664034
B,T,-47.44592114890968,-57.225590686506656
B,K,-49.127535682536156,-63.91626391737231
B,L,-32.0042024801921,-67.83835140899507
B,G,-43.257610067006276,-67.91821665506073
B,E,-34.70108198378611,-66.33526982814767
B,K,-43.75718167998549,-67.1507331642958
B,I,-46.25797171889865,-63.28559224916971
B,A,-46.63094984229905,-54.014416726633605
B,R,-52.79540143751733,-65.52137171276978
B,E,-27.634444108395968,-84.26641717874519
B,W,28.607910177134737,-111.8731284837143
B,E,-38.01527698618061,-52.67696438542478
B,D,-2.2031384526348203,-78.16599637497909
B,L,140.74730826483494,-93.41116436876544
B,D,114.5990473502425,-99.4445021295535
B,I,127.69943633668976,-123.50617441998487
B,D,-27.14823881119333,-89.66428092306494
B,V,155.65075154158632,-156.21021309404264
B,V,119.00641209674524,-114.3303296992406
B,I,116.65978594502616,-120.90963521165858
B,P,154.8309887690163,-77.34195061171228
B,I,107.36587978082088,-103.86857021003325
B,P,154.04920829193142,-53.012852334783396
B,E,-28.108440601659794,-108.5584156150989
B,T,-36.98493089349083,-57.46513407869491
B,S,2.6841166583222766,-81.449210787615
B,C,-51.995878448029984,-57.9402493976993
B,D,-30.84449947734273,-72.96130928653528
B,I,-44.80813057564676,-66.09442583251257
B,A,-34.78177706907655,-68.53144145263393
B,L,-48.715308141708476,-60.52888832979429
B,E,-42.56293235635067,-61.22045018766557
B,I,-42.031199791664505,-62.62323774129245
B,A,-37.06293138179152,-64.783349847169
B,R,-44.61411387615113,-65.57463251442319
B,I,-38.801581570307405,-66.81052591502925
B,L,-8.380752524716602,-79.98861091313792
B,G,41.82821360960925,60.35735875239379
B,K,151.64102405116697,-124.29303297197042
B,P,148.24930216671999,-66.85058441603218
B,Y,134.2989996327758,-106.29745546461886
B,R,142.77396761716295,-144.3943721635624
B,Q,94.27950504038934,-81.88115036367766
B,G,-31.725344842977073,-88.13879274260478
B,F,140.79952187186595,-117.87634432024836
B,V,132.84523219824973,-119.51722850296572
B,K,130.91990976516604,-86.94849265204424
B,N,109.98379839266565,-69.65301226638626
B,R,-31.414511270380295,-57.91376115976572
B,Y,123.89619552971183,-117.21594521435836
B,V,140.10601095770224,-118.93354221359543
B,G,-170.54312217165898,-105.54858705794872
B,R,151.1197623824334,-93.97109780617069
B,T,106.95347641539747,-104.52486027396539
B,F,134.69864684028053,-78.24997889914864
B,I,89.49984116305002,-79.51664004279758
B,M,145.90897181349033,-98.11001833639874
B,P,111.1199327882391,-54.94342208309784
B,G,58.645464724356906,67.58760461041962
B,Q,77.01420708080782,-64.26005282544101
B,Q,-82.88011212269758,-27.101199043789904
B,L,83.33469257481666,-115.0072890044964
B,R,138.1586406059761,-54.687466410452544
B,R,132.48209645272163,-76.39243737365538
B,K,130.8989105670146,-57.06373368769482
B,S,-51.52221212728822,-43.439237926453764
B,V,-36.429532201748806,-62.67341599347011
B,R,-20.404044495539605,-68.26960803142649
B,R,-38.013797510491194,-68.92334926948003
B,K,-47.07261616791785,-81.8093885256568
B,L,170.44642107819752,-128.41817255327038
B,N,135.41361840348466,-143.49423307753145
B,A,134.19525011480556,-97.25083894049442
B,N,101.55250849624157,-85.4491775916289
B,R,-41.494547932339856,-43.85778843377134
B,A,-30.030336252192868,-59.9006629950526
B,E,-7.96145800711529,-80.78144607475795
B,F,-28.284616457967363,-114.31336005795515
B,R,113.57165944844328,-46.623185410383925
B,D,37.312075399183016,58.61275027771451
B,K,143.73290264575454,-126.29248845548067
B,N,112.7837099236413,-88.74787934640482
B,V,148.59691950300234,-107.76887548550242
B,L,113.84790207999664,-115.69983118424932
B,L,148.5553853329685,-96.67628888942305
B,V,120.52484246112945,-128.35298742368568
B,D,157.80098734834144,-120.16087843514404
B,D,-31.57759651049033,-69.26944694011732
B,S,173.1880506469664,-171.17205551768814
B,I,122.9636305265052,-132.81710092499864
B,V,-81.17855408482444,-106.8418534309964
B,R,-34.15806957857207,-82.67714267864196
B,G,-6.4273016610761635,92.2542598025129
B,T,-56.75709976531584,-63.18785793176078
B,T,-27.92997018138942,-61.58379681083484
B,S,-44.528120448369435,-66.47141489984396
B,E,-37.55685326228882,-64.58097325316194
B,Q,-40.44225303557394,-68.04337675670175
B,I,-40.14203068255192,-65.2827863534415
B,I,-45.123207267556936,-59.18315170524369
B,E,-41.74424899062729,-61.738993334728285
B,M,-40.356478775123215,-59.80539528610101
B,A,-46.399935035827205,-67.06891006720119
B,R,-36.22994611863961,-62.37597729667818
B,E,-36.368572027603726,-66.77410821246936
B,A,11.701527207750152,-79.84622279824345
B,G,7.308942704086655,97.51799969683748
B,A,150.9707996806727,-71.11552270964422
B,K,-67.20968354121091,-94.18749133777881
B,K,142.13632765494762,-106.01036877324555
B,V,108.03690050787871,-130.052608743077
B,Y,150.5336151178753,-103.38887651985982
B,L,130.78049703520145,-126.51197304225609
B,A,135.9251824083263,-121.08662331549102
B,S,120.30104918501098,-113.06410293307842
B,A,-24.058978368393614,-59.653950645090504
B,A,147.06668870603852,-103.39591104721555
B,P,-178.0948129058417,-64.47639106498686
B,E,133.0323030956262,-60.46561426444931
B,I,104.42133876610662,-95.86140954655421
B,R,-9.0560181397512,-115.62825817467588
B,F,154.41589602862098,-130.38234531696452
B,P,151.74859842842307,-74.1375626507131
B,N,127.8806541418887,-101.56692438137866
B,V,23.3527611041922,-117.05808113224728
B,Y,9.0194632252801,-114.38333601888037
B,G,-10.629917996896973,125.73835995483293
B,I,129.76380443820088,-99.17916814772758
B,D,117.63018723356318,-80.38901092210722
B,M,146.5686934582207,-139.3891055582719
B,P,177.5977916365555,-68.83973749478048
B,S,164.7433625377177,-73.02038736406321
B,A,-44.18607945156009,-49.63630537831169
B,T,-12.85150157400957,-71.77374582302978
B,E,-16.91989181078352,-90.19195921154981
B,L,118.59021533060957,-79.53522164543502
B,I,-34.21035243870042,-54.7154161248915
B,A,-23.144608321094235,-73.48673175151784
B,H,119.22024469927099,-60.306853421333614
B,G,21.475441582812692,69.82097625178143
B,R,148.79734624484234,-136.48894126533406
B,E,159.68561293565025,-83.53938447083645
B,V,-42.36423790691259,-55.67010804645986
B,D,-29.254182740321,-65.77003483821268
B,E,-44.41155886499041,-71.96288296612097
B,I,-44.16692526829003,-59.94312757327147
B,R,-53.02374436424182,-52.83094609961561
B,Q,-46.93232289515166,-56.75131201502589
B,I,-46.101482412113214,-61.46547815591415
B,I,-11.385747814206892,-80.0296040749023
B,G,19.43640700726968,80.60320059796372
B,A,157.46518909978798,-81.22146515922599
B,D,-17.70021322941668,-81.82723151488028
B,G,146.69695264174626,-163.59976011849386
B,L,132.85616883849926,-139.5161775373356
B,I,137.44969589074492,-140.2969738039767
B,F,154.35725241910146,-112.19397286066486
B,Q,143.59752610674946,-66.3217060128426
B,D,141.51365603828555,-83.58643715700347
B,L,-44.28334872186047,-58.41150177590947
B,N,-27.720748552813184,-64.40843848110325
B,D,-43.78128100458443,-70.87983296050233
B,L,-42.751802355696135,-58.95934883206414
B,I,-43.736627742787775,-62.46452245765267
B,D,-35.79827457599506,-68.86828482473166
B,A,-41.34206623517903,-59.904096956604135
B,V,-43.985050371837296,-82.08810679201554
B,R,-33.96675439822292,-59.30638487056974
B,A,-28.28701148567519,-53.71501225437448
B,E,-13.016357135077156,-80.84858996909709
B,N,88.19178515338795,-169.29897822014422
B,P,-15.249319576152564,-58.48758560644395
B,D,-31.703810271939464,-62.4480246773907
B,I,120.50012984623737,-79.8971447944395
B,Q,-21.63771476901758,-104.39503148068421
B,Q,128.63064689813734,-139.94852291153296
B,F,167.3978779572411,-102.16818396115296
B,E,111.52593533034491,-86.1426437606599
B,C,9.63319559201621,-119.0395072266311
B,S,-41.63888392582072,-42.573886931668035
B,V,-26.146400128679414,-62.464341325665934
B,F,-40.478779378327204,-93.2270317982614
B,N,2.876227024417032,-119.00404171782837
B,G,1.858411107448493,72.72041477584683
B,V,114.40172862156939,-87.00171074457307
B,Y,115.46934703577058,-103.76693451205065
B,V,-32.137039904145205,-58.18190556501355
B,T,-10.607322788577315,-74.48137362224746
B,K,34.37035591542031,49.342871627353986
B,D,27.189596601231518,-134.20850629206353
B,V,109.82408612062758,-106.59298421841412
B,D,-178.05119811290592,-128.65958470957602
B,Q,-31.844200886866513,-67.786842560297
B,G,-37.49285277709078,-61.51052135329939
B,Y,-45.3644289551957,-73.85805229647983
B,L,-48.313684090658825,-57.764334329086914
B,D,-41.074058563136724,-59.43564267385571
B,F,-41.33284674978292,-60.86333460048753
B,L,-36.569354238088714,-62.83209842720095
B,D,-36.56117204270999,-65.4454530261756
B,T,-50.62256429108833,-61.68181874388046
B,L,-43.53857769754879,-54.806218137907
B,R,-41.279644213255,-62.32729153325903
B,N,-43.88480513516228,-64.297345860973
B,D,-34.921795493495324,-65.72332851566352
B,D,-46.16129748431853,-62.92084761127512
B,A,-46.257877397386316,-60.23147251747444
B,K,-43.90458375949788,-56.134367905417704
B,A,-36.539875377683565,-64.14029552449057
B,V,-38.37421301774094,-75.25263565787452
B,Q,-47.02144848182086,-63.558273147257935
B,R,-47.364031952454255,-56.54107049980357
B,Q,-31.965814826074794,-55.862074608781825
B,N,-41.95829589746618,-78.73194704847386
B,E,-59.66955785948654,-40.07943369818374
B,V,-5.726399427970691,-88.46368436809988
B,E,-33.555598311116526,-66.74252588712726
B,N,-48.78271437612356,-79.20610161917759
B,L,-25.981615173588157,-62.50614769199453
B,E,-21.35185088867087,-62.52440015064084
B,M,-24.897311307560734,-71.0975263324591
