Chain,AA,PSI,PHI
A,Y,144.96587474142646,-115.23261500494064
A,T,132.43220285618196,-134.2184452628619
A,V,115.97549770830118,-117.74212313568741
A,V,118.85492827267636,-101.7601527562155
A,Y,168.8317587437063,-162.27688389239097
A,F,162.2623717905017,-72.60491721341008
A,P,63.85826525849198,-76.19072623558219
A,V,166.8696912782379,-146.10141711194143
A,R,-60.28990644361593,-78.60176154550632
A,G,-132.2242848366142,34.59325208236733
A,R,-1.079519350445208,-72.11229890578034
A,C,-11.862495532265097,-103.51662572199668
A,A,-48.34689071776915,-54.626713106666045
A,A,-45.806887211106364,-61.836026848766025
A,L,-29.898491702253533,-67.68546804129227
A,R,-43.32065229219837,-69.03837925860935
A,M,-39.81225338344644,-62.26221598188897
A,L,-44.959943786941814,-63.12853588783982
A,L,-39.71198772266376,-66.91446576500351
A,A,-45.93308332789314,-66.93772272355568
A,D,-28.708578360806566,-67.33062388226028
A,Q,-0.06835477754136891,-88.6997381407844
A,G,27.570877429691677,71.48355788549176
A,Q,143.58395557239794,-97.20338301046957
A,S,158.93204612723707,-89.13797844295425
A,W,151.00888902683621,-170.27666895485282
A,K,148.0218799166955,-99.194013478974
A,E,120.74194638539262,-111.26262832935103
A,E,109.35466533528738,-105.07268413845796
A,V,131.22514746731855,-82.98394213832236
A,V,107.85655660137603,-114.44504303102535
A,T,155.09967467119446,-72.60012648751606
A,V,-39.68869162287443,-57.873942619098074
A,E,-56.55689322164521,-54.806897032104025
A,T,-34.47131323721067,-53.89091405155213
A,W,-39.506463701789315,-77.52571018616145
A,Q,2.7445681617004483,-73.34090667954752
A,E,-53.33037995915853,-81.0958492953834
A,G,-48.853199258842906,130.65133544390352
A,S,-55.97584043633694,-48.20526199129709
A,L,-64.50733409927412,-53.12823019217658
A,K,-43.19842405040395,-49.00566763494691
A,A,-25.115966015961195,-63.91290861809735
A,S,-6.843981693918888,-90.22789073142462
A,C,131.45289546127836,-80.00129325550547
A,L,-52.70687921400554,-43.501289719027355
A,Y,21.00649645044397,-106.0459440819091
A,G,25.227148965207203,65.78089398551606
A,Q,157.10413159434202,-144.84284738428912
A,L,165.451406199238,-103.20963704567653
A,P,159.3717797545717,-73.88774383462955
A,K,142.18204308238577,-117.06409445462187
A,F,137.86967199955066,-137.01033563627973
A,Q,131.95855332491135,-125.92643194088068
A,D,99.02196739267224,-124.57437951612818
A,G,-127.52448086941949,68.01207525517208
A,D,15.106899230019824,-102.86933848139807
A,L,112.7433391498416,-88.24627001812208
A,T,126.99414665495577,-100.35780229470944
A,L,147.9472919653382,-125.45019182172521
A,Y,159.49544075724546,-128.7152700301624
A,Q,112.01594234580512,86.38957096356522
A,S,-43.49265847060516,-51.32956092528392
A,N,-26.816353093252363,-71.41190341610269
A,T,-42.62512644142767,-66.43937365861517
A,I,-45.81378502398953,-64.62312091027887
A,L,-44.93935843481791,-59.8182193389811
A,R,-35.735965951811586,-65.04880643668628
A,H,-49.154151631949134,-64.58464575251112
A,L,-37.2705632693787,-64.19007311300642
A,G,-38.04559016300786,-63.247345857323296
A,R,-46.47574891296396,-73.15166957355468
A,T,-19.70652898568875,-79.00357766471028
A,L,4.341011228618682,-106.48617550311259
A,G,41.07907264464063,70.91521395588683
A,L,43.56490488343201,-122.20906280047234
A,Y,33.03725972812755,-128.9733628122375
A,G,159.79228982604482,87.97027478392972
A,K,-25.671359381856195,-80.5191923261213
A,D,-175.31531770036273,-147.88156589847281
A,Q,-36.01380600219588,-62.05426650790915
A,Q,-48.23658425822104,-65.48116851051113
A,E,-38.86729598594459,-62.91394318249343
A,A,-40.97497626327211,-58.893536262066775
A,A,-45.52769448083756,-63.16588756638749
A,L,-38.48468063996666,-62.997011871761835
A,V,-42.92223754114531,-60.851103901404606
A,D,-41.05261157446337,-63.203034426522635
A,M,-39.97621080813129,-61.28925004706602
A,V,-48.4964944966966,-66.75172270216163
A,N,-34.763963630384666,-63.07905842626452
A,D,-38.436496049958315,-66.13532029169363
A,G,-43.61133857976631,-65.2413036050536
A,V,-46.023655675837674,-59.018489284943996
A,E,-41.58597449496225,-60.058010236406865
A,D,-41.990843692779784,-60.7707919973154
A,L,-34.96133765520834,-72.60391209889747
A,R,-40.50001342789,-61.84924843049482
A,C,-41.86665237848535,-60.6882796011255
A,K,-41.539196881080315,-64.27073327802637
A,Y,-51.589503923841356,-61.390580546819216
A,I,-43.91476939213448,-55.629114307862054
A,S,-51.70542154745931,-55.349262100640054
A,L,-57.90651236294523,-55.189323101696026
A,I,-49.0096306552923,-50.43026988157199
A,Y,-20.410776512590964,-92.34612523895673
A,T,-47.36763793425378,-102.82760451133507
A,N,69.46712529321486,-153.89497703107247
A,Y,-53.643715967602596,-67.06463006931159
A,E,-53.51580093182224,-57.05748808729075
A,A,-4.822887017799351,-88.08204735969113
A,G,-8.538778455088593,-115.95516618215846
A,K,-41.20678045600952,-60.1570191695949
A,D,-56.53279734263199,-61.92563591635963
A,D,-41.94836910017805,-53.04092091175494
A,Y,-43.6821804873687,-66.7885471618074
A,V,-35.76469321622001,-64.20455086791605
A,K,-35.40762183548179,-66.74110271951776
A,A,-15.840320873914866,-85.50192265440609
A,L,-50.17712142735145,-46.62350738788089
A,P,-42.06087895652677,-49.912575826181175
A,G,-28.238404522823217,-66.4130905347124
A,Q,-26.91306029121816,-78.22767291429153
A,L,-29.593814418267357,-88.33429033583279
A,K,-42.55572946040554,-46.74055166851063
A,P,-41.3846298267346,-53.77052996574213
A,F,-35.001320272510114,-70.70849416918469
A,E,-35.60495494112669,-66.44731487476612
A,T,-42.87494476993638,-68.66555922212888
A,L,-42.29499442486129,-65.73390335125757
A,L,-44.07582766880599,-57.98238113687046
A,S,-27.798680716227782,-65.79192804198166
A,Q,-2.681782726109577,-83.8600654476847
A,N,100.55238885669503,-116.57509352381918
A,Q,33.77528044715679,48.190522810771355
A,G,22.971813101997835,67.40387492550869
A,G,22.897519360865395,71.4187066738696
A,K,-10.319212282898174,-89.03491093363242
A,T,-115.47010318378437,-121.56639655464015
A,F,-179.64702374774674,-107.55922190980712
A,I,-34.71378979092102,-66.02539130343648
A,V,127.23244757479102,-135.6591786201856
A,G,-156.86851779493097,64.3039282572417
A,D,22.663059453455062,-118.21309982949099
A,Q,148.43806018975158,-134.5078548801696
A,I,150.15727670677626,-70.16120030290668
A,A,167.08733382390474,-131.32206293002338
A,F,-33.18382202449099,-58.38618542215263
A,A,-35.627572268547155,-59.31812030362564
A,D,-45.54357737060107,-57.22689151580373
A,Y,-38.65513759733872,-64.866540070347
A,N,-46.62972394922235,-66.18402037366613
A,L,-42.216039755539605,-62.59510737258144
A,L,-49.31448482992387,-58.31904653852179
A,D,-47.85220350510447,-58.626892157484406
A,L,-40.01411687551864,-56.333969846240706
A,L,-43.710980875138375,-70.76049796509022
A,L,-42.05338097627034,-61.203339150085704
A,I,-26.940167641182793,-71.6967233527428
A,H,-26.548698262114442,-74.2626071507815
A,E,-31.307777495605055,-66.59970339815038
A,V,-45.547198703094864,-74.57325265147843
A,L,-35.08486794008484,-65.5309498568787
A,A,80.90050740028235,-147.2128426754256
A,P,135.30634322242213,-46.10351953017878
A,G,-1.6335353909261707,83.27285426763582
A,C,-16.659387837581196,-59.34768933756145
A,L,-6.319339270880402,-98.01340048291442
A,D,-26.259897200448965,-56.905861353406415
A,A,-0.002629682289249586,-89.70334000191696
A,F,88.11510971608075,-127.18395040243006
A,P,-37.71516872223788,-55.69619322516165
A,L,-45.00874629616111,-72.63038016119795
A,L,-43.59102931397066,-62.83855345058435
A,S,-48.94695035229099,-58.695928521666204
A,A,-39.05329081145486,-64.9292095765686
A,Y,-46.70927426369078,-58.82188082692724
A,V,-43.123801921225585,-62.41323916891829
A,G,-45.04600295434052,-64.53124830319261
A,R,-52.19950452629501,-61.19255252958144
A,L,-32.29175467527967,-67.20788116755193
A,S,-21.72149448432731,-67.67215750970101
A,A,-10.240219867368753,-85.51722177781555
A,R,123.89903376307318,-56.13584373271949
A,P,-67.45470985798887,-32.42520701946416
A,K,-40.66114688072423,-61.72942833337527
A,L,-44.094326624294304,-65.0391716814613
A,K,-43.74432805478066,-59.993831331603374
A,A,-46.33269658080227,-61.944360330155526
A,F,-43.74261503200123,-62.65825455315435
A,L,-16.831499695788064,-65.96557108995583
A,A,0.7549540226866227,-102.47157471320305
A,S,154.34429721193897,-88.2107716317406
A,P,-39.854697788643996,-53.92938908993422
A,E,-33.18436894330305,-50.7845250390334
A,Y,-56.98683805664419,-100.23871838981778
A,V,-39.4834559602907,-57.24852668911797
A,N,6.541607462635318,-84.54323246424106
A,L,136.14048538214,-98.8715805160355
A,P,155.19837694495206,-72.8355453323069
A,I,-47.176356184778676,-69.1935261035473
A,N,166.74562554723082,-120.99686817820611
A,G,-12.330941355440428,-80.64978208445255
A,N,8.382869205973481,-102.76536954954204
A,G,10.79979352148922,77.67505503503067
A,K,150.23069179343332,-105.9051427014123
B,Y,146.49123470020632,-110.6404022721075
B,T,127.01880278036501,-135.7560161928771
B,V,115.39609837669768,-115.20587020584271
B,V,119.4388181787281,-102.82698387326998
B,Y,167.5311300187728,-164.840403570527
B,F,163.11114460803955,-69.75654006338314
B,P,62.75293223947021,-76.69682157716908
B,V,166.82029345853528,-145.40370943796546
B,R,-61.5934568491946,-78.83491860694198
B,G,-131.99104936272306,35.658753759069995
B,R,-0.24216910367064753,-72.6630282194909
B,C,-9.977689426558872,-104.88498914054176
B,A,-47.730762447237616,-55.3081799795965
B,A,-44.27220181799677,-64.13899309841749
B,L,-32.95714483487576,-66.68659032890032
B,R,-42.81074333916638,-66.94077710329529
B,M,-40.94865564156869,-61.87584532283338
B,L,-47.12798382103881,-61.87888648623685
B,L,-41.42002149801564,-65.26209088851597
B,A,-48.856062312664356,-65.42393151740634
B,D,-31.047068613237975,-63.45936282068686
B,Q,3.6585929026645285,-88.78198271437999
B,G,31.206859174562858,66.73690073481693
B,Q,150.6380312333979,-91.84127212072113
B,S,142.23203880594784,-103.67454502529732
B,W,160.69165779521765,-153.28082575897054
B,K,139.1180467368233,-107.87686485917824
B,E,118.52797099396811,-106.66092673433482
B,E,110.47890848729327,-100.6273627175629
B,V,130.72868917503496,-84.35997354121716
B,V,115.59437757900213,-114.26806029244163
B,T,151.63064655910404,-80.87282244149144
B,V,-35.622896413011645,-49.70200313262287
B,E,-44.1370114324596,-69.9606054028276
B,T,-38.023903642784916,-65.5971736001077
B,W,-34.46302277725211,-65.74767875098027
B,Q,-14.053708818726768,-78.27680015331275
B,E,-27.816361647474235,-63.422349990309236
B,G,-24.672786873969468,88.0514210333555
B,S,-44.91904063613561,-66.99234591545694
B,L,-51.49242014844158,-62.296019423321574
B,K,-42.36932879680673,-53.67049485558623
B,A,-9.332541233038405,-69.57383880003763
B,S,-5.83667108090363,-101.70598842026003
B,C,125.88108872911447,-82.59087763976022
B,L,-52.603816220945525,-39.09466730166888
B,Y,22.797264970439457,-108.94558606540164
B,G,26.347040621458014,64.9044944455852
B,Q,156.09788919847432,-146.27285755910873
B,L,164.87479359842544,-101.64835595926898
B,P,159.0737543965365,-74.3924546797446
B,K,138.6223121006488,-116.57242048873044
B,F,142.73729126830176,-132.9114256425565
B,Q,136.51039963777225,-128.66156067158295
B,D,99.68268303091197,-130.58376772113135
B,G,-122.86917382080374,66.76735691338445
B,D,22.292664342893318,-109.61280238085426
B,L,115.52390478156765,-92.88276095268105
B,T,125.58051804336263,-102.74317675629281
B,L,153.82071360325708,-123.48349233544263
B,Y,161.39095536751068,-133.8512277770539
B,Q,111.72931089657337,85.11692551357491
B,S,-45.1740450594192,-50.210579781554635
B,N,-29.26469416905352,-68.63049753009682
B,T,-44.12996011898676,-65.22088326477656
B,I,-47.33077297947519,-63.73089043945598
B,L,-45.90343797070102,-57.5870141719899
B,R,-39.66656676127868,-63.5708605118846
B,H,-50.42719858759613,-59.49007780620138
B,L,-33.201278213410575,-64.54290571373663
B,G,-41.688866027284995,-65.67604709265363
B,R,-48.922586420942594,-70.44342448227673
B,T,-21.978482250610885,-75.15774953176248
B,L,2.107766095178926,-105.0405404538016
B,G,42.039101912913516,71.96673724320284
B,L,43.90041192584441,-122.54932507508995
B,Y,35.13842964762927,-128.74474147738866
B,G,163.2884927891654,87.18061057943918
B,K,-23.42232853178868,-83.68623432551612
B,D,-175.75167436358825,-150.82745126496516
B,Q,-35.373233590037,-61.27492388133252
B,Q,-48.30402863495941,-65.1415174549775
B,E,-39.004293474859985,-64.76724464730809
B,A,-44.04243142226307,-56.83907830281118
B,A,-42.3543278908729,-60.65832939148965
B,L,-38.64528861209463,-67.566113403414
B,V,-44.90022251722212,-59.671331393760276
B,D,-42.65457751768571,-60.60597403040977
B,M,-39.89161474685956,-59.92848459801089
B,V,-51.03095866703497,-68.22400633963187
B,N,-38.37340794517465,-58.70831639977633
B,D,-40.38956388971819,-63.54525855486621
B,G,-43.24925306398122,-63.69904365281776
B,V,-47.359549637780894,-58.69599472473817
B,E,-40.27864933343932,-58.06143940157543
B,D,-43.37895210811249,-61.495174477028414
B,L,-34.043537759778886,-73.72124096074249
B,R,-43.21675939159683,-61.730655637157284
B,C,-43.55034672632863,-58.09794433609981
B,K,-38.71206607124732,-63.92201112303082
B,Y,-50.284625637359014,-64.43338653374202
B,I,-46.67067982398445,-57.070308182327686
B,S,-48.144353899745916,-53.81542203371943
B,L,-49.39380077340114,-58.119704785372065
B,I,-47.864776501873436,-58.24530177580671
B,Y,-17.22386182354996,-94.93157016081793
B,T,-50.993866732108565,-103.22432175862
B,N,74.4947478961736,-153.17547951809098
B,Y,-43.271585842579185,-74.56480566341872
B,E,-43.309140975029734,-66.6760044021861
B,A,-2.663880099665896,-96.3424964845872
B,G,-2.2678677826268823,-121.59596712230882
B,K,-44.056829448187464,-62.66299818873861
B,D,-51.29751414152739,-59.79944402038869
B,D,-41.898630037038515,-58.177851010402904
B,Y,-42.28602879472995,-65.39384386502572
B,V,-33.974507043904524,-66.93568751813757
B,K,-41.60633177144439,-66.66194150144175
B,A,-17.038852833108102,-77.59532382736786
B,L,-50.959148538166794,-48.58870790328478
B,P,-39.69266012738888,-50.62893525754014
B,G,-29.69523476272014,-67.02189562472489
B,Q,-25.525629090470424,-77.64541509050791
B,L,-25.242014291422645,-91.51401675054423
B,K,-41.391121058563456,-50.038245761977585
B,P,-42.58603272734782,-54.794035765126644
B,F,-35.83504016036687,-69.40548930837112
B,E,-44.00825496150836,-64.14700292879611
B,T,-43.63774819561739,-62.473469109995584
B,L,-42.888416396240025,-59.36106160269767
B,L,-48.20960513017153,-60.08036938476955
B,S,-24.42949116206211,-61.52791786117235
B,Q,-3.2761425875663917,-89.42996427327482
B,N,87.58841501884028,-118.78672070453018
B,Q,35.2216441075362,60.506939765806585
B,G,26.281637902065384,63.335324550124476
B,G,31.69372416428279,61.042460880358476
B,K,-9.517249031371339,-91.23379964046659
B,T,-112.64746432570315,-119.96197726871038
B,F,-178.46014846293883,-110.3295606361491
B,I,-35.639117538053995,-66.49837974831817
B,V,125.60660418333372,-135.6254557230673
B,G,-156.03145215086252,68.53072004711123
B,D,24.994850717542366,-122.25885430219948
B,Q,148.64993622359654,-135.55466826415054
B,I,150.02886640387405,-71.00194676769652
B,A,167.7360367513191,-129.36875509552533
B,F,-30.94987296790946,-60.78908594009757
B,A,-34.37392928971032,-61.29856657041585
B,D,-42.077067441858084,-59.39682925177781
B,Y,-39.76094636879412,-67.59699199850311
B,N,-44.33610393160031,-65.45074964400318
B,L,-39.164631042058524,-65.9301281577249
B,L,-46.95789242598107,-60.99309618744667
B,D,-49.17448316910031,-58.74242747821824
B,L,-43.12196923219217,-55.08459785563285
B,L,-44.810084513774385,-68.96162396367839
B,L,-43.00006765117519,-58.664049506584824
B,I,-29.188128559379763,-71.08357402837368
B,H,-27.157856565703796,-72.22649487198561
B,E,-26.6376962396678,-68.98779536488124
B,V,-45.363032631612434,-78.37104092248441
B,L,-41.83681056641703,-64.07949614709412
B,A,85.31564395248542,-141.82940981012388
B,P,139.02151647710994,-50.12114990111416
B,G,3.8135552288073997,79.49612289268298
B,C,-16.089274031088284,-64.71262892705678
B,L,-3.640906338189113,-100.30648948517882
B,D,-33.044411849194425,-56.954728269651646
B,A,-6.616157732440688,-80.29718059434619
B,F,90.70295662213329,-121.58639914034389
B,P,-38.29166955509715,-56.70072730059659
B,L,-45.721103853956656,-72.12099629925713
B,L,-40.556618942387495,-63.95737153855936
B,S,-47.85554672625963,-61.09395420980099
B,A,-39.069629035393156,-66.61011888610842
B,Y,-43.751415298658436,-60.13486686226741
B,V,-42.10030754184765,-64.03826857145405
B,G,-41.26074371866112,-66.39692549623915
B,R,-48.59657233575165,-65.1001124863043
B,L,-33.00673407105263,-70.13832161489641
B,S,-18.695835963116007,-67.01155910315434
B,A,-15.012864429321649,-87.78406458279089
B,R,125.76826410927981,-51.426012880876975
B,P,-67.31960769200312,-34.40984515047915
B,K,-39.01622866329777,-62.029054477895066
B,L,-43.56851095608995,-65.93485006850567
B,K,-42.564352507408046,-60.72054650545172
B,A,-51.025463525834056,-59.94452402044758
B,F,-46.310158611111156,-59.165665463158525
B,L,-18.316358536977067,-62.55397683631897
B,A,-1.910785960767756,-100.97808826046234
B,S,155.35229494498202,-84.48794408163137
B,P,-41.55372799663189,-54.27177784862412
B,E,-42.63836910880341,-45.208222505827024
B,Y,-58.30892697825742,-91.93404739363405
B,V,-41.99790313805067,-55.60931247028633
B,N,10.102104192003816,-84.69833206059408
B,L,137.1670726500973,-102.27691949327318
B,P,153.06959784498213,-74.07581878790437
B,I,-48.91481105091018,-66.60660423905237
B,N,166.44774678222532,-120.26491203145068
B,G,-10.459226560113597,-80.50681775106415
B,N,15.298153471938539,-106.09609652857594
B,G,6.3501106561476455,71.74025439648901
B,K,149.09838987886778,-100.25435684435928
