Chain,AA,PSI,PHI
A,S,156.2344343038448,-136.31302164774687
A,S,169.19366116460012,-139.5002482573664
A,G,95.74881266751926,120.95340000866462
A,S,105.38771621065732,-139.01534797818908
A,S,151.75739001962336,-129.59098561470904
A,G,96.71650750275714,-175.67845821320205
A,S,143.89370290286593,-93.42789576764717
A,L,94.66659415399185,-92.7273823002509
A,Q,160.0025309077797,-157.60692913411165
A,K,145.08070313356382,-170.33925361548793
A,E,152.8381366716026,-157.2201095741449
A,I,141.0893899576044,-98.22749625732705
A,S,165.18221043062363,-84.02018955178275
A,T,-28.90463080780917,-58.116200756064536
A,E,-64.08456214508368,-57.192445534678434
A,E,-55.19518500271572,-63.69917031272052
A,Q,-63.62508141964984,-41.499895362296705
A,L,-45.18034847953098,-52.60373095309682
A,R,-15.026083721131599,-54.02649238051266
A,R,-52.9190412623554,-88.45519579966924
A,L,-50.62061640024436,-83.946471499479
A,Q,-31.384547962993846,-51.166623166664756
A,E,28.028365969719957,-98.41527952720533
A,E,-25.821134773128104,-129.40980659565196
A,K,-39.17220569836628,-104.55144262870616
A,L,-178.43673728248814,-49.263676363797515
A,C,153.0312564892444,-45.34384342925586
A,K,-25.785690302090025,-116.48242890421635
A,I,-58.77109094031045,-70.41753064165052
A,C,-28.380998754345857,-97.12116357812238
A,M,42.655123485856684,55.02819176919975
A,D,-44.89419350188391,-121.09202587554397
A,R,176.83681768739635,-104.96561194687862
A,N,145.5379166958843,-95.90799101116335
A,I,115.4162844300254,-72.21373319561553
A,A,21.24265796018348,-134.67198642805252
A,I,147.60310542027196,-147.16188250994273
A,V,178.77122253907197,-117.52875842683557
A,F,156.8030138649492,-116.50909209313537
A,V,138.5541382684568,-130.4347966597041
A,P,-50.86805826191721,-69.79021427300232
A,C,114.81601287522335,-44.91378869916633
A,G,97.2531059041486,-88.47654522392129
A,H,102.56520654636925,-125.92386553222356
A,L,34.104865377357456,-83.61390704838489
A,V,4.778171262198783,-78.90648067768639
A,T,158.43139076015518,-130.63952076010366
A,C,171.8199899019867,-99.01021035410808
A,K,-49.69001112046346,-42.87812858140192
A,Q,-69.93913763343592,-59.6817294919028
A,C,-62.39956489272087,-50.40587723831342
A,A,-44.676913807700615,-36.07862730995714
A,E,-42.411494864134035,-76.04487055721137
A,A,-48.55783413413458,-56.30786416054084
A,V,120.08258657730347,-76.58586446064041
A,D,-36.83997923706326,-69.52597571698173
A,K,145.067528754547,-130.1226223537433
A,C,118.53724216045508,-35.686351029320285
A,P,2.8198761635616796,-69.79048774571005
A,M,-36.54492762533938,-123.32444325160736
A,C,2.5145887457283025,-109.40140164906754
A,Y,25.636547517276902,45.24259158466605
A,T,111.2190511539382,-91.40127546114135
A,V,135.87490546011276,-36.311531027487824
A,I,93.25319206819732,-100.88847372211063
A,T,22.05272030242046,-95.57931909183557
A,F,127.24735396981602,-168.1363273154798
A,K,80.59474905162426,-109.1891180184462
A,Q,139.5125135104398,-73.64190336455744
A,K,125.56392902400596,-108.68848913503935
A,I,167.4721630484907,-97.83636164512635
A,F,52.4408328834746,-129.82008147997604
A,M,-53.11691131801135,-50.944522759120474
A,S,109.75521603989162,-119.29135925374034
A,S,-45.76399081768981,-87.61955899444973
A,G,111.81547284636252,59.47731398140457
A,S,110.71775866315069,-117.07306174484111
A,S,139.24808343760137,-98.89622630321851
A,G,145.0116632936928,-134.84042667050545
A,S,169.43066359603316,-108.77328669137917
A,L,100.36058094193281,-116.22221559206659
A,Q,91.49538412613951,-131.9670372852482
A,K,120.91694290850145,-149.4724038182573
A,E,165.87273337990496,-144.54097364878808
A,I,140.0294357681544,-91.81255516400175
A,S,166.97986823849809,-79.36531722784687
A,T,-26.27009745160604,-58.98939328121122
A,E,-57.100460161369575,-66.15443362170267
A,E,-52.00626027958519,-67.3694030966114
A,Q,-61.59667814680399,-46.772741097670696
A,L,-41.34860561088426,-52.54757956899806
A,R,-15.669031568099488,-57.910412116524455
A,R,-47.78629213310133,-86.75070297297486
A,L,-52.19138484941776,-90.05950915684697
A,Q,-53.65180870637222,-50.296822311592365
A,E,-24.564396884563912,-47.87802221724031
A,E,23.313667845242794,-90.55609951449306
A,K,-59.48943723250118,-132.67617909984472
A,L,-176.27982709517,-54.75066108402825
A,C,164.9750920349936,-45.82594936488942
A,K,-27.47776875186727,-127.34750916812352
A,I,-55.559224430886694,-72.54462114359613
A,C,-27.145349875598875,-98.71419332239078
A,M,42.316998065892456,51.84051757979436
A,D,-45.35004666648982,-121.24474139855117
A,R,-175.50350581413235,-102.6913982660505
A,N,148.6172485539537,-103.48851945933197
A,I,112.26929748490784,-74.81748863845205
A,A,22.913792196957296,-132.0983638334794
A,I,149.35373527803276,-146.53961503464055
A,V,178.96378117470795,-127.15012991842507
A,F,163.5306664448554,-116.41918505953797
A,V,137.81258713309595,-134.02099879624691
A,P,-53.1017015907087,-69.70701679271967
A,C,116.06618342773822,-42.18278293642162
A,G,100.37788553601177,-94.47816430107764
A,H,108.70914918624898,-125.0746867533155
A,L,45.810804660352034,-87.46401874279408
A,V,22.215976040535722,-94.61498888479932
A,T,155.52231091061586,-148.2815769570981
A,C,163.2790965261129,-103.21247583621351
A,K,-41.77265956122135,-36.86998886016156
A,Q,-65.41172028918713,-65.73649514084322
A,C,-61.11867094117105,-55.70294871593275
A,A,-39.11142618198288,-36.18385791772953
A,E,-44.147580577815255,-75.6457043781202
A,A,-44.50551771298945,-60.547330828962295
A,V,115.3030805700484,-77.28909135528262
A,D,-32.530868942492894,-66.80307335192836
A,K,155.25443437029926,-137.09162396311925
A,C,118.0233569862783,-43.867347649484906
A,P,3.3935458727780605,-69.73300987650973
A,M,-36.838889380851214,-120.64990728710171
A,C,1.9037074329969965,-112.32905156034482
A,Y,30.075782806794766,46.60351543780779
A,T,118.24466132753355,-94.60376617980859
A,V,125.7721451283924,-44.07780450648937
A,I,88.68095322812549,-92.38488857488426
A,T,-29.94686632853155,-80.27496272873692
A,F,133.61210533778552,-113.90401361101618
A,K,84.10232140621265,-112.40130621737342
A,Q,132.2819521715175,-82.09420586867817
A,K,141.799099291979,-93.3683042487123
A,I,-177.72753605650334,-126.65574960417457
A,F,105.66134221990437,-156.71864361649227
A,M,-50.30304956208623,-95.0009518358306
A,S,136.71192922821498,-143.9495583002905
A,S,175.35212371985972,-122.70106268924069
A,G,51.55105798080246,169.5533182951062
A,S,42.25474613029154,-100.49602749599836
A,S,126.45249548904447,-156.85441248233565
A,G,56.745102484328335,140.12205917486477
A,S,101.38700116115781,-60.05824539377254
A,L,114.47429364372633,-37.2762071030811
A,Q,133.02695402443322,-54.32570758305606
A,K,123.35159210365748,-144.76355580381232
A,E,169.86549798804336,-130.96002284762372
A,I,137.56260494938408,-87.09899553675228
A,S,162.16891818592097,-77.21913421606067
A,T,-37.38733385623205,-49.774396932519316
A,E,-65.33691788770493,-53.13470771557911
A,E,-56.006793899153436,-61.10326527128914
A,Q,-64.54837121793292,-42.52687215953826
A,L,-51.234880470644896,-48.23338087437416
A,R,-18.623007741760787,-46.95517119940032
A,R,-56.462703662913775,-81.65229691722689
A,L,-47.22938580130406,-86.49121303460713
A,Q,-23.801735004476406,-51.642224926410506
A,E,-20.145880510851608,-90.7342388580101
A,E,14.707640651468271,-94.60660050341212
A,K,-41.066382648539914,-134.9943559332012
A,L,-178.26925206642608,-56.77310722437064
A,C,159.70875606684447,-37.73721734765886
A,K,-27.68129389534112,-122.2066677672967
A,I,-63.836717387150266,-74.50411395862376
A,C,-33.89622918117393,-90.56601883593464
A,M,44.75432465978609,60.861190986209145
A,D,-48.32992568705943,-119.67667674168021
A,R,166.62467503680645,-101.96758408948774
A,N,113.49974589012743,-90.30380504424737
A,I,121.7591155997928,-43.872114040291116
A,A,15.881266842986058,-134.93442868617566
A,I,149.00273936894973,-137.60016353676187
A,V,179.09329959950472,-118.44504253276182
A,F,155.2969055834409,-115.51636393678437
A,V,139.2631939598296,-129.4262877000414
A,P,-51.32403667800324,-69.71718578609088
A,C,111.96466156465749,-44.095803311171565
A,G,103.47253930428977,-86.42768526653043
A,H,102.29612807349875,-134.30495200904878
A,L,43.07750532115126,-80.11509085048456
A,V,18.011106794532985,-90.26648474414357
A,T,146.30761583287082,-145.02273483498288
A,C,154.32898096163817,-94.06249528774443
A,K,-45.13262946349369,-33.465893621672265
A,Q,-61.76042250091439,-61.35900726710159
A,C,-55.94711966540158,-57.687000323835015
A,A,-36.091502014342545,-36.22368198581526
A,E,-42.69634966338595,-76.59993632880175
A,A,-46.16460097266038,-65.95014178456455
A,V,122.52455186523598,-67.48057657599534
A,D,-35.64999588619923,-73.31530193333666
A,K,153.8357534786252,-145.67967214068767
A,C,116.16330850018774,-35.6657792216689
A,P,5.925258464125917,-69.69340634392918
A,M,-41.89256971481413,-124.21112791081093
A,C,-20.300055284394382,-103.40092748833776
A,Y,25.018711998088932,67.9924279354139
A,T,103.83920051335022,-88.2466878931687
A,V,107.1168667367571,-33.03983809741386
A,I,97.39123514190513,-50.0245799329493
A,T,-28.940828536490255,-78.8891322999316
A,F,157.27670271124038,-148.64526343480378
A,K,89.07905776675295,-129.62369456749084
A,Q,134.05503899400244,-80.58320285691076
A,K,132.94842366185915,-86.6242131881475
A,I,166.77015579508856,-102.01050467921905
A,F,41.22333519598976,-131.1403127452383
A,M,-52.152037080700566,-37.153874164058436
A,S,152.23064770479573,-160.09578820628843
A,S,174.50878060919726,-157.75267821881835
A,G,125.92042544712322,134.6478003627654
A,S,169.62274101800247,-161.68926565846505
A,S,137.97310113328277,-160.40105820200196
A,G,91.54153942020905,-154.3853362758973
A,S,110.92371628746146,-115.30976751554364
A,L,168.12002911045488,-125.25301664966184
A,Q,117.86487132067786,-68.33060850494302
A,K,112.57559046232845,-106.58511398916252
A,E,157.08842434276573,-152.8511010244161
A,I,155.9146727421211,-89.19262068592536
A,S,167.5956134526314,-95.5877079454142
A,T,-38.64583617896024,-58.885170746535366
A,E,-64.37959478050828,-52.011323037775576
A,E,-59.98222576005205,-61.35616833626174
A,Q,-63.41608013326557,-38.712184425436206
A,L,-42.351891986241085,-52.69877208003359
A,R,-11.493327629003293,-59.09340874374824
A,R,-50.05028529798573,-91.8972561801572
A,L,-49.046932619257774,-84.52513415912638
A,Q,-29.541450167882573,-50.10880515784797
A,E,22.793573719549382,-90.77101968983713
A,E,-24.01987261673642,-127.19667497067068
A,K,-42.6760746215015,-102.89799094318221
A,L,-175.84686824486025,-49.04917862157154
A,C,168.33702575723987,-42.1239447896193
A,K,-25.73898835274229,-127.95781759274112
A,I,-59.57389207020336,-76.81164469340054
A,C,-28.751543250138795,-90.51663071117973
A,M,44.48683604822908,53.941439457254745
A,D,-48.01750297890811,-133.37757440343282
A,R,-174.99732125769367,-87.72034352219337
A,N,140.52222893398337,-110.20326283915811
A,I,112.16762296834476,-74.51148585100498
A,A,23.69844069732419,-134.31910237678096
A,I,146.29053616657967,-145.9696748566091
A,V,178.8587470641955,-117.3751440483962
A,F,163.9767408787324,-116.54690440606561
A,V,138.57533862093567,-134.31451191370945
A,P,-50.652681350073976,-69.80677668554527
A,C,113.6848279977238,-47.00984812920778
A,G,102.94696262010581,-87.6866357236155
A,H,115.06163297055772,-128.4279382337456
A,L,37.82773501319041,-92.39359391641725
A,V,-34.735783528042205,-72.12996241946443
A,T,160.5271167929974,-99.99921545818034
A,C,179.00553763628244,-95.19964904564769
A,K,-39.91159830710723,-54.14998263961421
A,Q,-63.059251781710174,-70.50034178255375
A,C,-57.127978207651005,-54.62899903557489
A,A,-44.61964044294912,-36.65723841757408
A,E,-38.77399668344879,-69.00718706070086
A,A,-41.228740226472574,-62.50698476949313
A,V,116.48928835387026,-81.50424407361086
A,D,-35.13236233442513,-66.0656347603504
A,K,153.142636110582,-136.5428443287781
A,C,114.40526868089952,-41.889576456996885
A,P,3.8914925857247034,-69.73732197683891
A,M,-38.91075495826193,-119.77439858346916
A,C,-1.5120254048916622,-109.16360948000828
A,Y,25.73574823992471,50.64275677229072
A,T,111.44733749329575,-92.28464133552708
A,V,129.24127607923225,-39.8008224992998
A,I,97.99132684538982,-92.60048671467581
A,T,22.506194433465424,-98.0605221975538
A,F,124.17161979063542,-168.63149942304796
A,K,80.55926917393988,-105.11953342422824
A,Q,143.8714028350346,-66.5758954209067
A,K,110.64074204993757,-103.2784476758891
A,I,162.2625645510169,-92.25608527896213
A,F,80.31681899410933,-133.6942610090268
A,M,-46.00763413979198,-79.18576805505771
A,S,109.2490624590486,-168.49861501842994
A,S,133.88280557339033,-170.79617784556814
A,G,116.3453128750254,136.51947190476193
A,S,118.86216597131546,-159.27876454937737
A,S,153.7137331216131,-151.95842945030293
A,G,66.3539268175244,-172.51525846533792
A,S,115.48855530669564,-140.22546294699328
A,L,86.94341603093827,-126.41364931661089
A,Q,124.24355125650449,-173.05737589067533
A,K,108.79761530975881,-143.34646888453946
A,E,166.09091596931034,-60.95095036180246
A,I,137.35861995954778,-86.53376554286038
A,S,162.44090851014244,-76.77490487758247
A,T,-40.02730888646396,-53.69232237277238
A,E,-59.772367901254,-48.685890685635435
A,E,-60.250850497649566,-66.25875570254927
A,Q,-59.4658052446571,-39.3986269405103
A,L,-43.29935255860517,-56.083975842186085
A,R,-13.10393173451863,-56.12977548542913
A,R,-46.98250566613885,-91.18401989496746
A,L,-51.55659821342296,-93.38917904287912
A,Q,-22.121133302573032,-53.96513588103675
A,E,-30.049335082095325,-80.24332258290308
A,E,6.149886009368355,-89.35023084768892
A,K,-61.3621224282964,-111.60700271347598
A,L,178.9284582860974,-49.86147300405619
A,C,155.30030714638866,-44.67515651049631
A,K,-36.450160468673346,-116.54644513807597
A,I,-67.45411637853941,-60.47959709257422
A,C,-34.26143876130961,-87.97011516031814
A,M,44.90942672879834,60.7063166048956
A,D,-38.24816968424803,-132.77252042885428
A,R,171.70587999873553,-92.79519557319745
A,N,102.5208531826095,-101.13279957368081
A,I,110.10577088972421,-33.884489540836604
A,A,21.934771670636337,-134.0951392916978
A,I,146.21099563612228,-143.33527545781007
A,V,174.91358813863386,-118.05498263430677
A,F,155.35129032453165,-110.87794110460062
A,V,136.77225915287113,-128.96091320030084
A,P,-51.447046831367125,-69.79654487726661
A,C,115.61569783683828,-46.2466485248139
A,G,105.30037099278312,-95.46448001502081
A,H,115.89723892330677,-122.24314030125555
A,L,43.172882354856654,-79.2881464658741
A,V,30.23867899364805,-107.92554641144531
A,T,136.79263986849244,-154.81380933858978
A,C,-178.15718206316737,-87.7332569778882
A,K,-40.74367822577851,-55.460986089888046
A,Q,-66.706614115698,-72.54877970984236
A,C,-63.64453603891865,-44.8169023156077
A,A,-43.929680176643735,-36.0992065343287
A,E,-41.510926441397004,-73.67918982926129
A,A,-49.05400216119577,-60.25841300312894
A,V,129.599708989157,-73.74781282484379
A,D,-30.93643777149288,-80.09781013847702
A,K,143.43719547716302,-140.2912621230011
A,C,118.75998179263635,-33.66975347999019
A,P,4.167508313580232,-69.73857627537951
A,M,-33.27620747387146,-124.55705800113999
A,C,-0.4186390529540242,-112.56751892500245
A,Y,25.120710246854106,48.57646671878634
A,T,116.00258279627397,-91.12134498204243
A,V,146.4350324660182,-38.51526046139205
A,I,93.50348299771828,-108.2913524517418
A,T,-22.153243845229117,-87.59737522856122
A,F,136.33042712566711,-125.75215634597247
A,K,83.02378674499603,-118.35182002473671
A,Q,152.9255698528755,-86.2089546741665
A,K,142.34773529232092,-111.40586210747071
A,I,159.6343474730386,-96.35339584397859
A,F,50.547664446837615,-134.89907565784148
A,M,-41.88813842425908,-47.671563983089136
A,S,133.7202903063716,-143.01976787938113
A,S,145.5365854823806,-168.17876156923865
A,G,129.20761274144598,110.28125985235515
A,S,122.60641385872337,-171.85219870481572
A,S,175.59684095228053,-156.09343408963687
A,G,132.14681380092588,156.13220722048078
A,S,132.98190194896154,-107.92862650995427
A,L,139.50051470939252,-112.81377524574141
A,Q,155.47471704157164,-127.84200015590876
A,K,123.80184005312054,-140.8365140967857
A,E,163.88538643665908,-95.01773642627845
A,I,142.21630970721765,-96.51467957930737
A,S,139.3562719143675,-88.05002451947034
A,T,-35.3891119664769,-35.45196817730076
A,E,-57.66853207414915,-57.04203207312006
A,E,-47.81418095053852,-70.83200751218277
A,Q,-58.71801739186372,-48.39733854848083
A,L,-48.505188129773984,-53.999282030847276
A,R,-17.441455367543725,-48.02630141054804
A,R,-55.913603103189054,-85.45621569198289
A,L,-47.648814535317655,-85.48127914273623
A,Q,-28.75638943702696,-53.43183468996025
A,E,12.050964830908574,-83.67502916092728
A,E,-10.37864015292385,-120.95692263779719
A,K,-35.23958943733941,-114.76561966080078
A,L,-175.66820622396966,-50.71949889398297
A,C,163.99169712133153,-45.52952971589712
A,K,-9.920264570455176,-125.59912591071374
A,I,-59.413090818962374,-94.08190829548244
A,C,-36.8673002725313,-91.15042263846787
A,M,39.559263733796655,59.85579165245193
A,D,-45.243056020345406,-108.57809944888618
A,R,-179.85437459798905,-119.14594974359547
A,N,155.0629165932307,-86.93410184654913
A,I,121.71904991899395,-86.13557035453239
A,A,24.028599486887988,-134.9337835336397
A,I,150.5495223107381,-147.2357345173277
A,V,178.4135269842135,-130.7752190853727
A,F,170.56776205803965,-111.66199334676328
A,V,138.15998799079136,-142.58941454636908
A,P,-49.51409859921789,-69.76062645285879
A,C,115.1176765864633,-42.83405636417878
A,G,100.4212674386925,-91.17640587165387
A,H,116.60495431672973,-128.43032555476026
A,L,26.501628455167225,-93.67868006143091
A,V,-20.92957115853738,-62.96755514270946
A,T,156.318321071348,-114.83968128806393
A,C,-174.1153835180124,-94.3726620622274
A,K,-39.60750425580601,-54.16673209906159
A,Q,-70.40701549841384,-73.97028661529707
A,C,-53.70491583944767,-37.11691373840007
A,A,-42.90141181491048,-48.00802139727071
A,E,-37.930612709015065,-68.0848488304323
A,A,-36.59688150464439,-65.07687976012001
A,V,112.80353451629118,-105.67682906873632
A,D,-38.408153870559055,-64.71146097323765
A,K,155.6907178257815,-111.74037068285597
A,C,121.85936925583972,-52.51916401009997
A,P,4.007775816587553,-69.76548565298592
A,M,-31.42131604624927,-125.85970069115402
A,C,9.991967866409617,-117.83235693467563
A,Y,29.736672841230806,37.80210993752695
A,T,107.22596383243675,-94.19538421905803
A,V,123.12892013788831,-37.822880806833176
A,I,93.34839236815803,-82.90326518421591
A,T,8.019771536439038,-90.01938631100614
A,F,118.41626874234456,-156.79515482148122
A,K,78.22706627559631,-100.59395967436659
A,Q,156.10661692476188,-69.12723006804904
A,K,148.32807309201246,-114.36523851676122
A,I,-41.774925989171074,-121.3879565436519
A,F,53.615820777159904,51.20728341762898
A,M,-47.398224981964184,-40.58130107135708
A,S,147.69319379937298,-171.51063463373345
A,S,175.5605562090808,-166.79688414954245
A,G,114.0246097961317,116.45794121073746
A,S,124.76423242985285,-152.22001510296488
A,S,145.1602550201842,-165.4776960449515
A,G,154.88205890719559,110.96283702245987
A,S,164.27559788800545,-143.7414063783495
A,L,158.88053849107337,-115.53170642006384
A,Q,158.75716783894237,-144.22421424794211
A,K,146.52804741026068,-173.7866460902268
A,E,164.52004406046186,-154.13835788871575
A,I,142.97522606848494,-85.82287395239658
A,S,170.44344262724485,-80.20659543048845
A,T,-31.539831090614527,-64.64885861383591
A,E,-63.20539354690381,-58.29467320729888
A,E,-53.133857402915055,-63.30409572981803
A,Q,-64.21537407488594,-44.68543474932569
A,L,-47.167273976621395,-49.907230805235926
A,R,-15.959495297990033,-50.88292115418392
A,R,-52.98755485149898,-86.88916102206922
A,L,-49.11133751577299,-87.58909165460545
A,Q,-29.682323618256344,-52.20161458103698
A,E,19.106087912938268,-83.38375869294951
A,E,-14.056759948917176,-122.47050360750283
A,K,-52.98054626017173,-101.40676575325526
A,L,177.91318112858067,-47.11057090547379
A,C,167.85094838018256,-42.980615888925
A,K,-35.38505155984839,-124.7484248238668
A,I,-64.8167361976406,-68.68229379305168
A,C,-40.76024428423439,-85.368937247149
A,M,45.738804260958275,60.972104553388945
A,D,-40.14149222771799,-122.83722153125306
A,R,165.18224228590122,-110.30571459916115
A,N,119.67481489976298,-86.83222208850299
A,I,118.69064014804819,-45.20166441063658
A,A,26.93436024388877,-135.02045221983613
A,I,145.1846244324841,-147.59866360273702
A,V,179.1611152790145,-123.58714693878606
A,F,167.18729623841512,-115.97505791633583
A,V,137.09473690206295,-139.5547802487369
A,P,-52.05958605023887,-69.77609465168332
A,C,113.70609895533632,-42.60853628242589
A,G,101.17732896981299,-90.7559485542245
A,H,100.24936155582309,-128.04232029067023
A,L,36.43565885750106,-83.50524207731117
A,V,-42.610260334547206,-70.0969236850583
A,T,152.88318211236552,-94.69315893751018
A,C,179.04463737365649,-83.97556298029838
A,K,-43.30214124611985,-56.44631804948852
A,Q,-54.98960632307359,-64.37942161152066
A,C,-58.83229040897999,-59.14163011884274
A,A,-41.61063201125852,-39.05206964926167
A,E,-42.24599045062081,-65.20505540699358
A,A,-46.77323546393253,-64.14929704020946
A,V,112.27533491464635,-76.78637781282468
A,D,-38.456939976031514,-60.697357045835986
A,K,157.77986138722346,-132.05722079820237
A,C,121.47283305027196,-42.78671872241967
A,P,5.387387759990331,-69.76288130888594
A,M,-38.588159075429914,-128.2812564732407
A,C,-7.450713737862453,-105.58957285943774
A,Y,34.781197924180354,52.89034784552546
A,T,115.50714594010614,-96.73510319848984
A,V,121.35229160273558,-40.06599957223846
A,I,86.99807365430269,-82.3045815150529
A,T,-33.62293902606477,-83.86525363094006
A,F,133.2346230490043,-118.07603765868541
A,K,81.22636921731349,-115.76660796762833
A,Q,153.23647840396777,-67.21089917959415
A,K,115.9601660500259,-111.34918961090357
A,I,-41.23947397271918,-93.87590297336199
A,F,50.92820682797272,49.84911223426033
A,M,-55.74597337610325,-39.67341597306765
A,S,-61.89114775791166,-111.94549732736677
A,S,177.90946224024935,-173.24894051423848
A,G,-157.7259956973149,-92.60966439196244
A,S,151.41412623287994,-165.5388528049472
A,S,160.43811668034738,-123.61838540890122
A,G,51.387194707181266,-145.63628516271808
A,S,107.24091105822603,-133.95598788922882
A,L,41.017420130781716,-114.31822920566249
A,Q,83.3444148565666,-81.37565656217038
A,K,99.52944218385414,-127.75736322348821
A,E,151.22206392870797,-144.12619722688402
A,I,153.95765595286085,-89.92744249132883
A,S,152.96827051519216,-99.91377218857055
A,T,-35.04477340191786,-48.84106435661426
A,E,-52.86255400963462,-56.11504607817182
A,E,-56.612663106162415,-70.83161284205256
A,Q,-62.26170589017404,-43.398425438274714
A,L,-45.4041576764339,-51.17329195903109
A,R,-15.022404883331765,-54.414851361331586
A,R,-51.12625446711461,-90.00589183753296
A,L,-52.13368084893959,-85.4944822431405
A,Q,-48.84659874971466,-48.814924577697866
A,E,-26.604855405314,-51.37216501799422
A,E,16.311594635316233,-86.08240691146683
A,K,-58.655836352065585,-122.76891700704782
A,L,-178.6471166344307,-58.381563218878426
A,C,158.49642021975507,-44.64762027079649
A,K,-28.969670521312267,-121.86323898484419
A,I,-56.78337418062974,-67.29831803504563
A,C,-37.64552011461145,-98.43359668850526
A,M,43.71300414671049,59.486783507977826
A,D,-43.23079736469975,-116.74348777624019
A,R,166.21041484627304,-109.31144021447369
A,N,128.63602430337633,-87.93814991216293
A,I,126.5431432857593,-54.85486590906572
A,A,16.71681914885064,-134.28983127801663
A,I,149.66579642898927,-146.73878064057624
A,V,177.98989007173458,-122.88098268903636
A,F,156.03926183281172,-110.70284361667221
A,V,139.44866040876758,-132.97778410462607
A,P,-47.497929418502586,-69.77406747172611
A,C,116.24705155503152,-46.597763398720524
A,G,101.85866814184018,-90.24925530807585
A,H,110.70118605546696,-131.32007344863837
A,L,47.62299370549411,-93.09516988241873
A,V,10.133094755537932,-89.44602588642982
A,T,161.32989710725224,-141.3213275649145
A,C,165.95974636457416,-102.92159731233282
A,K,-44.34697566569514,-36.20457570006661
A,Q,-67.06609618527334,-67.31204347558942
A,C,-60.9226522163737,-51.55811238018528
A,A,-36.03269975829406,-37.02935720469162
A,E,-43.686159364816035,-81.57317305246299
A,A,-46.29839213594383,-58.398467361165494
A,V,115.56734569409947,-68.19035835161893
A,D,-38.373820053983515,-58.13946788696265
A,K,152.83184299784386,-147.75191410071986
A,C,117.72077568885229,-33.66265706653262
A,P,7.72649337067834,-69.74049643719744
A,M,-38.90222341977248,-128.5482375946454
A,C,-10.057441522307775,-105.65807019212023
A,Y,32.4563908783134,56.260833037802975
A,T,105.5362725121842,-102.22600137164434
A,V,124.54472878885191,-42.35401504633578
A,I,93.28285362635545,-69.91541020779248
A,T,12.979789268810134,-84.95954125863435
A,F,122.14233111972516,-169.308623296276
A,K,89.96532093128481,-97.00196904362438
A,Q,125.44144578498744,-85.84962628933044
A,K,137.50546262820404,-88.16482480636097
A,I,164.19396484203173,-105.70847327631971
A,F,45.56229162900277,-134.28481532674215
A,M,-52.4835610665424,-38.370694202753235
A,S,-61.49659798069898,-128.11517013612735
A,S,160.41768684104377,-168.1073369633675
A,G,89.6058980875751,163.26064288091231
A,S,114.50701110233886,-163.8009291639451
A,S,156.73957685691238,-121.40209443746399
A,G,95.1504064951936,-174.68454620602319
A,S,129.79727970520742,-156.05610564821842
A,L,149.89912790971007,-159.6413006771338
A,Q,132.3086360377709,-143.64854465515552
A,K,109.18125216719248,-149.74675196406866
A,E,-177.1715788617101,-71.98746716586477
A,I,152.3609804771705,-76.83730307605938
A,S,160.84011782338965,-87.81623957603593
A,T,-37.81492182451742,-51.92484558341717
A,E,-57.3313713145753,-56.70270217349921
A,E,-59.47404407009434,-66.95718852008469
A,Q,-62.899394849524455,-39.278442727667866
A,L,-51.84831138764978,-49.113764653746095
A,R,-16.63098355058686,-48.389978768146825
A,R,-59.50089956312839,-87.49646363246701
A,L,-47.15023205339786,-76.37328886930194
A,Q,-33.66423888514619,-46.93202945958369
A,E,23.274135357012867,-86.18448020019244
A,E,-16.540401617115975,-126.76324219271655
A,K,-50.778941428389366,-101.22380754421398
A,L,177.86891904403643,-46.74071745361814
A,C,163.01528009860527,-43.318482674814206
A,K,-37.4369207792289,-119.11092971264331
A,I,-69.60442300153545,-62.63750682408768
A,C,-41.359837144951946,-80.33342583729507
A,M,42.2620156047016,63.923694936029314
A,D,-53.92400935018311,-111.0655083434426
A,R,-174.70420788259565,-108.99733582587803
A,N,161.40424303938494,-91.5757386529704
A,I,123.09757996685289,-84.98622574373853
A,A,20.858610442404242,-135.00994326921173
A,I,151.44498754903387,-147.61201960426973
A,V,179.186414121507,-130.99299055028015
A,F,157.57266425153372,-112.81975541123748
A,V,139.35036251333335,-133.20752116699038
A,P,-51.358916049123735,-69.67638434726291
A,C,111.12036545344696,-43.36684327580797
A,G,100.89498980611367,-87.45370004756609
A,H,99.61837945648432,-128.08298415213466
A,L,46.403666539381405,-82.17528021181842
A,V,11.254727105886492,-87.58757493981376
A,T,158.98289851519309,-142.9325431736841
A,C,-179.74090212195722,-96.99878134890619
A,K,-44.13302888070891,-49.23666794509559
A,Q,-68.0636034650023,-66.41858131002137
A,C,-59.40298190259227,-46.96295467196027
A,A,-38.734231929668766,-36.42890775073451
A,E,-45.970352508932,-78.13356314716148
A,A,-49.53532980840458,-57.550141669080446
A,V,114.10940938296744,-65.27290950564874
A,D,-35.10727529692246,-62.730056731117855
A,K,150.89310690895658,-148.2379729283375
A,C,115.36660621195612,-37.122313193885184
A,P,9.461316829146604,-69.70410842892774
A,M,-43.52463608770372,-123.30107324150615
A,C,-4.918024070371978,-106.98532246123828
A,Y,33.19252175420493,54.21648834046553
A,T,111.88681314912188,-97.3196345781989
A,V,120.71070860874717,-42.36034514660748
A,I,89.56329039309969,-75.7086494359865
A,T,-33.04998438475057,-78.70611171690551
A,F,127.76630009981514,-119.24340730012909
A,K,76.82615549449557,-103.39296498274467
A,Q,152.22516140371667,-62.34693385461817
A,K,124.14832075081684,-112.09534504600316
A,I,156.72892218761444,-113.28104353655439
A,F,35.39935432940482,-134.98429469583613
A,M,-37.40964625950399,-64.68685815957542
A,S,160.0300764513131,-170.1323828886639
A,S,-43.77597698591399,-126.3549880697794
A,G,144.83998556020194,70.34813833404608
A,S,128.89813297897348,-147.21196698806344
A,S,173.85475215631783,-155.64966573114364
A,G,160.24798177038895,143.69101867752082
A,S,173.24609899617755,-103.42483169685619
A,L,43.82511844629607,-98.15353073122584
A,Q,86.55920524719203,-121.5150933606244
A,K,114.58493287259633,-142.51905484932328
A,E,146.20406731714402,-131.56046710047679
A,I,156.23907448366015,-74.50475982056764
A,S,151.65598878276262,-92.44723278458693
A,T,-31.931373151871945,-52.74892908413671
A,E,-54.43789558954201,-59.29291020821444
A,E,-53.26489428115119,-69.45266633471914
A,Q,-64.12120476887996,-46.27156778732664
A,L,-45.62389031520946,-50.502442150514526
A,R,-14.068023296823661,-51.90003595015174
A,R,-50.491234990618416,-92.52253432092539
A,L,-48.47446182666461,-88.06048165909581
A,Q,-28.49056803797941,-55.09030280541657
A,E,7.71154600757393,-80.1593570118777
A,E,-9.138535420478318,-115.49143748586135
A,K,-56.53868767925337,-101.74086713795401
A,L,-178.06874674105427,-48.94053392182071
A,C,168.95940862435842,-43.043246191053605
A,K,-30.537722580259494,-129.06137496267468
A,I,-65.0904853532321,-73.74153805488051
A,C,-41.438318022311755,-85.9215100469028
A,M,46.402667044664646,60.31655268144735
A,D,-41.39033648569832,-118.15925514284345
A,R,-174.265097497334,-111.78761588863883
A,N,121.43510476684426,-101.58120556583751
A,I,121.61267754151615,-49.44173886492517
A,A,26.996523667341968,-134.9764857174993
A,I,152.82711700443554,-147.4711710368842
A,V,178.74915856614763,-130.42329294832194
A,F,178.28023590161692,-109.35445630490005
A,V,138.1373149203984,-148.12903745897015
A,P,-50.08892453200142,-69.74261266337157
A,C,114.62286521889769,-41.06531425151178
A,G,101.45799851552196,-90.13209705738892
A,H,101.37909931345366,-130.9065851969808
A,L,49.70077889163214,-82.61175128994043
A,V,7.755571233288202,-95.06574096892032
A,T,147.48081596781182,-133.61137429481954
A,C,158.60557416075574,-91.63099029546039
A,K,-48.11397763306164,-33.710883918714025
A,Q,-60.95920079867211,-61.95666739244189
A,C,-61.84005963497845,-59.89988144809075
A,A,-37.14912216341688,-35.88087201684722
A,E,-43.603283409586595,-76.76988204540142
A,A,-46.402837783623006,-63.75494722611489
A,V,119.28403685008641,-59.816007286416
A,D,-20.23885485496927,-74.56888664782664
A,K,144.13209577615004,-160.05532922234323
A,C,116.72351424066804,-34.008279162652315
A,P,9.075695551928446,-69.69609666116793
A,M,-38.31009287967221,-127.07797985449109
A,C,-5.233339825417303,-108.4600723425267
A,Y,39.662806319795614,52.294876562903674
A,T,109.3656706592893,-104.28824201931218
A,V,138.04159819087417,-35.59634082202648
A,I,92.91091779854588,-77.46050731958205
A,T,2.4996466998831637,-87.68797777269747
A,F,163.0730287603793,-166.31417367696508
A,K,79.26496514610149,-135.00225532338834
A,Q,131.49046323079102,-76.37196621576928
A,K,132.0987039071597,-95.46704877961675
A,I,164.08894746694227,-105.29348772391228
A,F,38.40335493942878,-129.58986569613054
A,M,-59.845572922378274,-33.21405914185174
A,S,42.22744261777166,45.633066556080855
A,S,165.35208735967507,-166.17098531071045
A,G,104.66880854290255,124.1896117859601
A,S,99.90700640967802,-132.5606380845124
A,S,144.1987088851917,-168.6983032127636
A,G,111.21585212092113,150.62222004074206
A,S,161.5461371153261,-157.66079667464683
A,L,117.33594348780538,-143.84406431360307
A,Q,135.0768669826502,-163.95727238257862
A,K,129.63747748487256,-164.84593105082755
A,E,153.56755857213355,-121.65666216891513
A,I,142.88967501428831,-95.87231739915286
A,S,167.8316783347299,-85.98518846269313
A,T,-35.01338873931289,-56.95528673069062
A,E,-70.1775750586483,-54.62116131084413
A,E,-46.536255880351916,-59.525880455946066
A,Q,-63.30979114870113,-49.95499215014462
A,L,-39.39067557779396,-52.257314012691616
A,R,-11.653031817510305,-57.4343224486027
A,R,-44.887853041284636,-94.80605903035492
A,L,-50.0531930856852,-91.18892607625467
A,Q,-31.955821812098947,-54.91267642097012
A,E,3.80323698377192,-74.63656235803913
A,E,-21.489000656737,-110.51839261748879
A,K,-39.97317579779909,-100.13321801062018
A,L,-176.25906739136596,-51.32407212050991
A,C,170.4737450842208,-44.22742267706289
A,K,-26.57562598501277,-128.82041740655217
A,I,-68.30596279139321,-81.77352888770419
A,C,-37.32711889049064,-79.70167273064347
A,M,45.03418525150626,56.63473584411437
A,D,-37.78209508820532,-115.03231035529484
A,R,-174.78438190974893,-120.04779276664074
A,N,120.16867490853076,-103.38202773489249
A,I,125.94957373616815,-42.77478177114378
A,A,22.22512198080183,-134.87283325236336
A,I,154.72888173825189,-146.2430842784238
A,V,177.57197933727556,-129.77846882293872
A,F,172.34562127147117,-111.37605562827734
A,V,137.81796986043287,-142.9790913394339
A,P,-50.625198739993905,-69.79895457963086
A,C,116.21914026769917,-43.67547312587408
A,G,99.23835072830603,-91.13690781812392
A,H,100.4095696633777,-129.06939816821293
A,L,43.089648825899985,-84.33466513496305
A,V,-33.19182292884414,-73.64882232812327
A,T,150.69033076493017,-105.15174539297023
A,C,155.52766205905885,-85.48701264313637
A,K,-33.187119165506296,-38.04572266483586
A,Q,-58.32867558984066,-69.82371942496407
A,C,-51.008637108159505,-65.04810747606865
A,A,-47.81957462027175,-39.02405098128971
A,E,-43.04472496737437,-61.18680665962658
A,A,-49.38787183328417,-60.07437820133669
A,V,128.41942586937773,-68.35662826749547
A,D,-29.50492275817571,-75.68738137675302
A,K,150.7766393241693,-147.78470336798947
A,C,121.57129048151509,-35.23072973208314
A,P,5.18803500797377,-69.71205345896902
A,M,-39.74310953852391,-126.53054356162856
A,C,-6.230222178695546,-105.94414739601861
A,Y,31.322267388117055,53.58234270245982
A,T,106.24321848719809,-97.25161138115169
A,V,128.65969046910314,-39.24042825768123
A,I,95.99786009665424,-76.05065003500948
A,T,9.981605219375291,-91.105869521782
A,F,126.99306964722535,-163.3896742276076
A,K,81.54284094626597,-103.78265985322645
A,Q,146.65065395703462,-71.19237878243861
A,K,116.59454098964191,-111.50027015264338
A,I,170.39835053260435,-109.08556971449681
A,F,86.18107292637919,-134.96226790836906
A,M,-49.73542967280616,-87.2463564080414
A,S,130.72348592343002,-142.49837364634755
A,S,138.41690639810113,-153.8914113480506
A,G,128.04969185050737,-136.12128426162025
A,S,153.0350858743038,-134.21940662526524
A,S,161.60781561307212,-161.1156019698111
A,G,51.73111426419488,175.75097933181823
A,S,41.64925042295824,-108.08478972671088
A,L,158.2867111656793,-96.67569407284061
A,Q,147.92760784800208,-79.60564402121142
A,K,39.91889894507685,-116.72087843366393
A,E,152.1303764753595,-62.78860127036635
A,I,154.663910130454,-78.13946232836882
A,S,153.5610261732945,-90.38074355708295
A,T,-43.15673692683476,-44.59065163108892
A,E,-57.90170412855469,-49.45288499469734
A,E,-60.855493987445996,-65.66747255055661
A,Q,-62.711371145976116,-40.38838097411902
A,L,-47.88258358778121,-50.71013483052465
A,R,-14.886368609170518,-53.341424941942336
A,R,-46.28745263219684,-91.39724145419677
A,L,-50.91840050835641,-91.95183989178777
A,Q,-47.46164521596917,-50.11107660943682
A,E,-33.681341966907105,-49.04796747778908
A,E,22.1825423026675,-85.221880150144
A,K,-59.29282054205421,-133.09200856284863
A,L,-179.6975176019834,-50.680473320116064
A,C,165.88410601965714,-41.45137120379247
A,K,-42.50467474655671,-120.92907953450235
A,I,-68.49547625109528,-60.52092344496077
A,C,-34.281304682030864,-80.07294692140026
A,M,44.258669874901145,62.95309803036014
A,D,-60.99358989291614,-133.5169373800248
A,R,-178.52646437130906,-71.3863282187449
A,N,141.65015958334612,-104.65395105528773
A,I,114.20754426937371,-72.92076462622184
A,A,18.330201603034407,-134.85265595118022
A,I,142.0682985661938,-142.65040015027373
A,V,179.2944295062784,-119.91143209707795
A,F,161.87728561187112,-116.21814009844786
A,V,136.62051474026373,-132.9427010027293
A,P,-55.29502627715945,-69.72883572308382
A,C,109.25415758738356,-40.793149032276645
A,G,100.94879786983428,-90.64812843587222
A,H,100.68174455581841,-125.39526573460395
A,L,39.50694212133311,-79.8774546612728
A,V,16.37677463505541,-87.8701332446649
A,T,161.74016320557539,-139.62599509365484
A,C,160.45904090747098,-108.6798551722197
A,K,-41.31947600043765,-41.24184293839274
A,Q,-57.35768013332758,-62.46081989626442
A,C,-61.47110917665377,-70.95599129114588
A,A,-44.36802766460827,-35.213232786373105
A,E,-46.85022394268543,-67.57256465107746
A,A,-48.64275866073033,-59.214090895749486
A,V,120.8210106164933,-68.5117939469394
A,D,-36.00715114350473,-73.46686858330547
A,K,152.65064397552285,-133.21828025271665
A,C,115.69603358006697,-42.12511132746825
A,P,9.531629232919974,-69.76852967165578
A,M,-39.82633529835472,-127.66477144274747
A,C,-10.51641183433248,-104.97051477070323
A,Y,32.72550864570181,58.83374644911279
A,T,109.73091140497405,-98.89996214174343
A,V,117.44160450078653,-36.67429295824481
A,I,83.33594804845318,-77.95233820641697
A,T,-31.269888352216526,-72.58148673272579
A,F,135.81620660032584,-125.430955891249
A,K,85.65419824742376,-115.94675337578884
A,Q,129.382510964954,-70.57974807284432
A,K,116.21024316128732,-94.59605589387728
A,I,173.38016107960607,-105.02224441758197
A,F,82.38964688260887,-133.28948004806975
A,M,-47.469393417416875,-87.86035982317492
A,S,94.11778943189597,-131.29736717300216
A,S,160.0223367260553,-96.25698276293888
A,G,108.28986587439887,130.89869812760452
A,S,127.31673388352203,-115.04548199534712
A,S,122.97843607943796,-48.25282285531547
A,G,-111.13751764458138,-88.98379597712842
A,S,148.57241690317917,-108.80416469320001
A,L,104.74559168437688,-124.51878329119886
A,Q,130.6711660690607,-109.94691395627282
A,K,111.29302171146769,-127.66806847319668
A,E,153.8719740828286,-127.7858702745697
A,I,138.68884444930345,-99.29633938454052
A,S,174.4913571346194,-81.43856409335118
A,T,-31.57095902640066,-67.58484842193266
A,E,-54.584303471352676,-57.98593295365669
A,E,-55.01688638051562,-73.25480611627584
A,Q,-48.72285092917705,-42.090951280174956
A,L,-48.26657428904818,-65.64143712878929
A,R,-14.919667427170838,-52.8976743298203
A,R,-46.182282047503385,-87.34026317348147
A,L,-53.04176497655602,-94.76608612286867
A,Q,-17.691682391156004,-52.16197242624285
A,E,-29.570982566838584,-83.80610573907994
A,E,2.3977642046847,-87.46664277909179
A,K,-62.68127851460444,-106.54166524786585
A,L,-175.7732379019301,-51.4951156200744
A,C,166.62899767157663,-49.52186924899572
A,K,-23.118268255873907,-128.443892983504
A,I,-65.52089285451726,-77.1785062044733
A,C,-36.5210247762685,-88.54282333440459
A,M,44.369419299149286,58.76432481209625
A,D,-37.19354883962159,-119.74083651644315
A,R,152.21619650359608,-119.38557608934961
A,N,125.12908624484425,-73.63385675612615
A,I,126.35449639979775,-48.316979583166074
A,A,12.680683057431704,-133.16956382461404
A,I,149.3910669801458,-144.09390796924495
A,V,174.4296678845405,-116.71404635805123
A,F,152.0586971104454,-109.39083509957915
A,V,139.12839058251035,-128.32367619514764
A,P,-49.954598068896615,-69.74457236038808
A,C,115.4318935349754,-49.62043271308625
A,G,104.55631608859332,-96.0753730031998
A,H,112.96858812674569,-121.88385165786389
A,L,46.37467287167278,-76.82947757110857
A,V,23.590268659610324,-110.64106147577729
A,T,139.48461007114162,-152.2326470067542
A,C,161.80341480506627,-91.59167268014922
A,K,-46.91002295991119,-36.34687716566049
A,Q,-62.63168335809813,-62.01396213641287
A,C,-63.193398776358016,-55.455097613565464
A,A,-45.788578463197844,-37.90704514979242
A,E,-38.09224027196836,-72.25800467850114
A,A,-47.1206415918094,-60.53100156021906
A,V,122.69980338823709,-82.31013754372587
A,D,-30.490155966721396,-70.97184130309316
A,K,142.42803269683333,-134.11770236497875
A,C,116.63424333646941,-35.04851037644458
A,P,4.111390346082308,-69.73497881687511
A,M,-31.11958415138526,-122.85822900420074
A,C,2.7287976740184345,-116.84428051444101
A,Y,26.116338899947596,45.68104992409756
A,T,114.06478014093524,-89.37231108500771
A,V,133.80443415768366,-38.39716535632138
A,I,104.22084976555783,-102.53101350063244
A,T,22.575173722977365,-107.84407714275638
A,F,145.3957423942241,-163.44936319747907
A,K,92.78299449042775,-130.24906117850406
A,Q,152.35391614205415,-92.55582435201431
A,K,151.88269644100652,-97.66439584924142
A,I,-178.78595747997113,-113.70603853213323
A,F,105.6531752117494,-157.96835834916183
A,M,-35.436190695879034,-121.77422964224479
A,S,157.75681144531669,-171.75269610866027
A,S,171.83614637268326,-168.4380719566488
A,G,169.08200844047056,-175.84805944322977
A,S,157.34182210454884,-160.19130296143103
A,S,162.25003730666413,-162.02869525959562
A,G,-140.26679739536775,-146.6183827884328
A,S,133.64079721915874,-166.2987339977754
A,L,76.11091618763624,-93.58462698093662
A,Q,141.4619023277699,-161.05327071360398
A,K,149.80275104675403,-166.22190663519712
A,E,154.59436833739016,-157.4599096039321
A,I,145.01147574677546,-91.02661609504358
A,S,154.02463848159243,-86.79578541301868
A,T,-35.18126081515382,-44.63320524486286
A,E,-59.097921820109065,-54.09868504591367
A,E,-59.71724371027204,-66.2966132012175
A,Q,-63.307398116588764,-38.89105789771646
A,L,-45.33271656354504,-51.90898353999026
A,R,-11.197479651966104,-55.48617568270492
A,R,-49.977480292214615,-96.39237796378333
A,L,-46.201261613645684,-85.85113286808529
A,Q,-12.565989396750489,-57.3414915395225
A,E,-31.33463121444742,-95.69106809155286
A,E,12.50475659214925,-100.9390017491599
A,K,-43.91243324611817,-127.17371131820099
A,L,176.79505719540592,-53.68357781425469
A,C,155.2391416782582,-37.39383922136495
A,K,-28.992256896983466,-119.33875176778436
A,I,-67.43231686708775,-68.34992991428285
A,C,-33.532565653194844,-89.19959595050905
A,M,45.92079299085924,57.65191690538513
A,D,-40.949335003878055,-124.72333571175606
A,R,177.07898043418444,-107.19198113349188
A,N,142.7220071709944,-96.7049227529446
A,I,114.67578710206901,-69.97989641387457
A,A,20.767791768894085,-134.99710332427418
A,I,139.22382697701138,-144.70546862622618
A,V,178.36053222326956,-116.06546948621575
A,F,157.09432386637536,-114.8510503946797
A,V,136.77714555666904,-129.7921453210501
A,P,-53.10371524590875,-69.74097146835564
A,C,113.49732583197374,-42.9844994950079
A,G,103.21772491592374,-92.93031355953467
A,H,99.343583963575,-129.01396810327017
A,L,44.69327815873195,-80.47950315362269
A,V,13.639842877245002,-91.06376326227388
A,T,159.55870591326425,-138.61738181740887
A,C,159.26687681131125,-105.73520586591881
A,K,-41.26917621363352,-33.993255564523885
A,Q,-64.53222881845872,-65.89549262928621
A,C,-66.78265644512497,-55.66266402614975
A,A,-34.58178080120952,-35.42342165217154
A,E,-43.56202528994247,-76.54605770891283
A,A,-44.42391305330703,-68.68847933289214
A,V,120.06285303623044,-63.791107638852196
A,D,-30.29718474268792,-73.2431447598321
A,K,145.80824371871793,-146.55536868524655
A,C,116.39345113168926,-33.91462597891492
A,P,8.83602540664987,-69.77971687461621
A,M,-41.5922528496309,-125.42925077599287
A,C,-17.727598237961256,-106.08136773519051
A,Y,27.262490140916547,67.9646027709442
A,T,101.02313456804659,-94.41060590008249
A,V,122.21371215838903,-34.19055488966613
A,I,93.99534254646319,-57.22861803393265
A,T,-30.067081430224754,-75.63597872621126
A,F,131.26573804420076,-147.74635545642596
A,K,97.58083067275409,-98.31968050526154
A,Q,137.2145403751367,-91.45153823028335
A,K,143.32385929577734,-95.70518227675194
A,I,169.620261686856,-119.45996757608583
A,F,50.23899907680014,-133.66690232833557
A,M,-49.013590981696375,-38.52118958172809
A,S,110.07163334867427,-173.08262005696017
A,S,42.50534836940493,-88.76417560441904
A,G,103.72759885601118,76.07124679521716
A,S,171.30116845770587,-150.82783238349572
A,S,155.27286539626832,-141.33465524267086
A,G,47.42860025729738,-112.05247386466935
A,S,119.79309450212554,-152.4592166213309
A,L,148.85211978747893,-126.26202032673292
A,Q,131.45551845777692,-154.75733190754525
A,K,151.15097627044767,-159.6462735953931
A,E,165.49627385601275,-173.94166366113757
A,I,140.0111551919183,-90.33393723626236
A,S,177.94469579976226,-71.40252628104324
A,T,-32.44102339223643,-69.71198147442213
A,E,-57.539226723497634,-57.080544589318464
A,E,-52.7196503131798,-68.27081815402548
A,Q,-63.50245667600739,-45.82416375140886
A,L,-45.50899545639813,-50.72334980075567
A,R,-15.013986930787947,-52.80938975757944
A,R,-49.976577317584905,-88.27751778428663
A,L,-49.632592475548385,-90.742802046718
A,Q,-41.545195415850785,-52.46444732106199
A,E,-26.350810332981133,-57.55221447652206
A,E,8.05600414291113,-91.46258091543945
A,K,-61.86354424834294,-112.89985626303096
A,L,179.7732949307267,-48.597288911601176
A,C,168.53749033092524,-43.8990102700914
A,K,-38.883197391191516,-123.94100251341996
A,I,-66.72165024543746,-63.77229455115425
A,C,-42.93111308382331,-80.89929836782318
A,M,45.60564568050058,60.42458797915251
A,D,-40.51839568421837,-131.71396611252328
A,R,151.43858410526022,-116.80500573660159
A,N,143.89103774187947,-67.86738749894945
A,I,140.84895573363048,-82.89567520391259
A,A,11.93598629063337,-134.70002400186968
A,I,148.7529255289445,-133.1251041167876
A,V,178.3198481068878,-116.83819499630302
A,F,151.24109983921275,-113.0006360033882
A,V,137.49938310128124,-127.84138855795064
A,P,-50.45267843903995,-69.77518223465223
A,C,116.02115825411533,-49.267189251909855
A,G,106.56249555578374,-96.72968057320918
A,H,112.00751481772693,-123.90515482596678
A,L,47.72956266117526,-75.32762170009025
A,V,14.161022576523889,-109.80563519128076
A,T,128.46405606484166,-143.87481340194535
A,C,169.50093590073928,-88.78021101541347
A,K,-46.37313602831855,-41.94286578214437
A,Q,-65.26005159862598,-64.83304422652517
A,C,-64.23925077758187,-56.06577106170378
A,A,-40.39202280611727,-35.90774061427465
A,E,-42.94087244159187,-70.10604093652263
A,A,-48.16155929269727,-60.779290203108815
A,V,121.10624791674425,-75.05806237067199
A,D,-33.56228520999869,-74.63763460361531
A,K,145.32899796317645,-132.25291576602237
A,C,113.09726580244205,-37.76975559723352
A,P,8.9228007714614,-69.77328607706521
A,M,-38.361379598739525,-123.13713143643994
A,C,-2.09737789282399,-112.22992316194966
A,Y,25.23782573011755,54.34709734613883
A,T,110.2221456932856,-90.03930474134283
A,V,132.09975755976205,-38.4258130127297
A,I,95.39311145956648,-92.59303993564184
A,T,18.909697943357212,-93.94711630638979
A,F,152.21994007597314,-166.5073132995588
A,K,105.53451792741582,-129.92521888407975
A,Q,154.1034803915686,-109.07649416881006
A,K,126.77173542922895,-120.58755359519722
A,I,-30.499084092449955,-82.09673222986073
A,F,53.77712662819696,60.42560840414193
A,M,-54.11939127571753,-46.88241349536559
A,S,42.18985359453329,58.932804135640865
A,S,165.91433411376306,-124.60098761949932
A,G,107.4377097003346,111.2999308756609
A,S,151.2619614939421,-159.35190867309683
A,S,135.4025806026419,-153.80826871550505
A,G,98.2758101609877,153.0359745655021
A,S,144.33847829169807,-103.67635658290192
A,L,93.1681585173071,-95.76144399111469
A,Q,126.90695798328812,-64.98117409318874
A,K,130.07493092189293,-151.0767075429088
A,E,152.98872208762486,-89.04553033083062
A,I,155.02501925037038,-86.75716747801441
A,S,164.82765005302318,-87.39472523626569
A,T,-35.517315018551976,-58.352449001452925
A,E,-54.69257272131896,-56.5608885075695
A,E,-54.384413695956674,-70.01489702126318
A,Q,-61.24845548601848,-45.131466173898495
A,L,-48.167554951153676,-49.87397846923769
A,R,-15.783577412078724,-51.71048704177003
A,R,-54.86180148797454,-84.49970169851359
A,L,-48.7450545137877,-85.47508586706812
A,Q,-52.201912442211736,-47.53422867691699
A,E,-30.748864615490618,-49.74473406137852
A,E,19.013578731426396,-85.53364156215731
A,K,-56.52247012726193,-125.43311639921866
A,L,-175.748782791366,-62.61389678853539
A,C,168.52732632451062,-43.593195001502636
A,K,-38.5882273257965,-120.74622244536177
A,I,-72.9890929729255,-67.96873486935944
A,C,-41.36822856729086,-72.1708306584661
A,M,42.629993123098345,61.60079309108053
A,D,-51.77007689200391,-119.31121651666952
A,R,167.21722718771755,-109.09498890476556
A,N,158.0972269886053,-66.87650948355086
A,I,-79.49613031096781,-72.45421644746251
A,A,25.012678646459708,58.060065550908654
A,I,145.20006237267452,-148.36990450952771
A,V,177.09491763111802,-133.86262501017876
A,F,156.36860451127612,-116.50920653397955
A,V,136.8023913964788,-129.3494451627844
A,P,-53.49087547032803,-69.81286452599052
A,C,112.22872606314478,-41.43515587827027
A,G,100.39410034676528,-90.56565405791672
A,H,109.8828392418163,-122.42160869277572
A,L,66.61663371837223,-87.31790882756631
A,V,-28.6124515008199,-111.35875112800103
A,T,153.36942567258274,-100.67854971781863
A,C,176.36176156189484,-101.00754702454262
A,K,-26.70028957223668,-48.45821535631825
A,Q,-68.07542339737172,-86.08715638415836
A,C,-54.19507610295945,-48.93335292145689
A,A,-44.74226061286688,-43.58445974720836
A,E,-42.033127081122615,-66.1525381803651
A,A,-46.77684187237941,-62.96486443828604
A,V,122.40288605977545,-74.01742857755848
A,D,-33.031230939619014,-73.02935513702307
A,K,150.02446973022214,-141.71631193484092
A,C,114.49281343137022,-35.607752283174634
A,P,10.312198720936891,-69.68569167750879
A,M,-39.50175873257873,-126.07573257585808
A,C,-14.295155383877821,-105.93139022579709
A,Y,25.900271576299964,67.40425509812393
A,T,122.36921017184478,-91.9776456888873
A,V,125.46276892716864,-45.20495163215421
A,I,86.07581977185616,-89.68840599849328
A,T,-27.14679449459296,-82.29716956444564
A,F,133.39094610868105,-117.10012058531757
A,K,70.02335714225667,-114.85706271667843
A,Q,155.20706587396018,-61.21681489055537
A,K,89.2734205881983,-125.2749706247502
A,I,-44.16605941999237,-59.26228088979002
A,F,45.93124271034412,58.93855896141228
A,M,-56.0409767891882,-33.63806067533718
A,S,-54.75949390130457,-62.85783252123112
A,S,42.15741146833129,55.31271919152714
A,G,-131.6528897691873,-155.623399468871
A,S,42.28688798403731,59.97922320098837
A,S,152.28428538543298,-138.01612892210636
A,G,114.63258459703192,106.7434127385013
A,S,158.75524449235724,-79.7904838190686
A,L,131.72882120257066,-112.3619820448198
A,Q,137.5855343464086,-137.15218824397488
A,K,126.96680967814736,-131.14867225543495
A,E,154.14987318320487,-148.0258720492058
A,I,151.69816385342676,-90.05332829050361
A,S,160.99726166820406,-99.37204253033298
A,T,-33.03926753303973,-52.568978085118246
A,E,-58.65162521122079,-54.15599628936021
A,E,-58.240880260262436,-68.19450438039084
A,Q,-61.83253810905731,-39.38712699512619
A,L,-48.09618350761642,-52.75610579691738
A,R,-15.254451732456026,-51.31305859570108
A,R,-52.99309077578433,-86.5797585936813
A,L,-48.024159882245456,-88.52143639500518
A,Q,-45.31040641923713,-51.72393414520961
A,E,1.1027154751452777,-77.56047417894585
A,E,-22.937763512473218,-105.09853438371502
A,K,-44.04997210670963,-101.23543554533234
A,L,-176.2898942318346,-49.20056329161541
A,C,170.63796288198623,-43.20805354333324
A,K,-34.102763565912596,-131.51353190397936
A,I,-64.63135932124514,-71.74850223707323
A,C,-37.036865330812844,-87.63310820094232
A,M,45.131538215121445,61.32462771304296
A,D,-52.546569276393434,-117.58705043226715
A,R,156.9398113188664,-107.10739265615045
A,N,147.56394061158895,-69.9260071604393
A,I,120.88619725274225,-78.77381142570746
A,A,23.319200396906155,-134.97890182959162
A,I,151.38530311923577,-147.67736951521564
A,V,178.0356242883266,-127.66091341109384
A,F,165.05272398965812,-111.12829884673891
A,V,139.0750601569166,-136.81768884729016
A,P,-47.128757901545846,-69.76296487678938
A,C,115.32418061778162,-45.40252549833734
A,G,104.11430500033026,-93.16427804298169
A,H,102.28069855735043,-126.41994226359715
A,L,34.902852594899805,-83.62585803923326
A,V,-25.808394049223303,-83.3167327680652
A,T,157.70619539652589,-100.73808994479732
A,C,158.8388603872528,-104.73260589415014
A,K,-49.887843334476486,-33.85050082975384
A,Q,-65.22673398616635,-53.942007842758024
A,C,-58.52654022361311,-59.69365908275674
A,A,-44.81868183646719,-41.75036552039598
A,E,-43.81097686776463,-70.66894983788126
A,A,-46.558606110078436,-58.47933404955374
A,V,122.4286417231323,-84.72855073390858
A,D,21.167308215707344,-86.74208707175579
A,K,130.5384543417207,-175.2590189172753
A,C,113.87017962483904,-42.17673855628086
A,P,1.190366559432096,-69.80249192264279
A,M,-38.6360660640175,-105.92024393267144
A,C,-6.2889865034916905,-112.52939255081247
A,Y,24.98445263051834,58.64729380128676
A,T,115.186590119115,-94.43132759916345
A,V,124.20351659068461,-44.79994009210924
A,I,90.5925537236572,-81.1351107115566
A,T,17.064962690120453,-83.5532411231711
A,F,131.87905413229328,-167.0268500718631
A,K,61.91097471111901,-106.29811532270969
A,Q,152.60272260588061,-48.94370318679671
A,K,131.44253217317998,-118.51638019534687
A,I,-40.70948327552852,-104.06739410526986
A,F,38.88844591438561,59.111863104036544
A,M,-50.3163177150976,-33.770411613758284
A,S,145.77590801176953,-165.024449015029
A,S,171.98163703445226,-174.07505970574826
A,G,152.99462756291885,-149.36096345599347
A,S,131.4355520264716,-157.56025687643117
A,S,140.344582638149,-169.06365567052248
A,G,148.05869350932016,158.32887932045972
A,S,114.89742719483,-75.54988540858194
A,L,97.76836990835848,-60.430486378927256
A,Q,139.21318999604057,-115.9732969488695
A,K,130.95465347968707,-167.5636464183449
A,E,151.46559830472714,-146.33759236773886
A,I,142.20949383433305,-75.36748352712299
A,S,155.77226217797522,-80.60643269125869
A,T,-40.881966541124775,-46.38193229278645
A,E,-59.8117117744023,-50.79364950298117
A,E,-55.27467955728185,-64.02100793800697
A,Q,-61.33045989008176,-46.05698119580722
A,L,-53.58348644745437,-48.493034312738025
A,R,-20.1633317147362,-43.92981987215581
A,R,-59.62003293754236,-81.6705004699979
A,L,-46.17532476463727,-82.96478660523302
A,Q,-26.66511906866866,-53.125422383184514
A,E,-11.79161895043814,-93.96819657166716
A,E,18.687786424008813,-109.4611626245822
A,K,-30.819522576704948,-130.89854115044483
A,L,-178.42909041601956,-79.67690148494903
A,C,168.15417869432864,-44.12179386635746
A,K,-27.219796863982662,-128.4723163849269
A,I,-59.198856653828315,-76.29726026441269
A,C,-36.16784810625265,-94.02606477748309
A,M,45.712348276130356,59.033967419019994
A,D,-41.982794221886685,-118.47634453801496
A,R,160.72894884072147,-118.48937336789858
A,N,131.47049263097705,-77.63565239996055
A,I,123.91890789273,-57.93418675257483
A,A,22.38042511091526,-134.97271861575464
A,I,153.38861523888872,-142.65850822065067
A,V,176.9520982963687,-121.58209304204665
A,F,150.67975190011262,-116.95614246950021
A,V,139.04589810841063,-127.076389410885
A,P,-48.72045973732422,-69.73526594687625
A,C,116.1210120143625,-51.56914397474403
A,G,107.84341502563942,-97.73064338549348
A,H,109.76362448919814,-128.08735255521287
A,L,50.81074389123036,-76.28886986052733
A,V,17.182082586851486,-110.29580755581345
A,T,139.46410434020865,-147.12444098638497
A,C,151.57486182503857,-90.84836195950956
A,K,-33.67299957104377,-40.53806377559048
A,Q,-41.638145717390174,-67.68767969860457
A,C,-53.154400577092865,-82.48575751157426
A,A,-43.44458182164534,-36.00595908559738
A,E,-47.32642952545845,-64.88292879577497
A,A,-46.77998355342136,-60.85109526431835
A,V,114.95082247942857,-73.50960246606083
A,D,-36.48366081132476,-65.84648012848953
A,K,151.19809472520154,-138.33090698470124
A,C,117.35746359285962,-34.75106123867077
A,P,8.51628741010131,-69.78499314473852
A,M,-37.24229291196512,-128.77472584254497
A,C,-7.405689624815178,-107.58854196724778
A,Y,30.009531716714005,55.11244644976598
A,T,112.26593725656151,-96.37935596524973
A,V,139.03988254246343,-36.05154896203624
A,I,89.15920144746298,-100.61589543129057
A,T,19.445294712558375,-92.83010731358726
A,F,124.44990855815473,-173.02553877346
A,K,99.70747854728428,-110.63624287477661
A,Q,169.712238647522,-92.78535910843425
A,K,130.1567971984061,-129.89952408728303
A,I,165.61556601340556,-82.07932315464373
A,F,46.92019876970379,-135.0180321833334
A,M,-58.44352928449732,-35.64556601464236
A,S,165.14376137088743,-144.3928150784972
A,S,162.20656062923018,-158.5255875085044
A,G,61.33172016601995,157.6831104780332
A,S,82.10521309827324,-95.47976719676348
A,S,127.66035716206274,-164.016009455869
A,G,105.14256851248345,-162.59315373436547
A,S,94.58074576460612,-119.53902420263996
A,L,112.85588430178811,-152.3341670327267
A,Q,138.7147631293888,-53.19908048051308
A,K,121.9331360191059,-132.591131509603
A,E,175.21196520956147,-130.41757537684535
A,I,148.6659053334758,-88.09248228261322
A,S,154.9159438781705,-93.66215403758603
A,T,-42.18906817312304,-46.39343614135701
A,E,-61.28691019193135,-45.55475400378927
A,E,-58.54105487286851,-67.16968098079188
A,Q,-63.71274358130914,-39.82729700303565
A,L,-41.927410626993066,-55.46617742847323
A,R,-12.121581789923214,-57.19286519068202
A,R,-51.53540416932947,-91.54265665176528
A,L,-49.02753948164102,-83.37471102711167
A,Q,-20.673374421656312,-49.47947632149465
A,E,23.726124112447554,-98.01648436883623
A,E,-27.531143571991336,-126.09958096689157
A,K,-47.26947365355221,-98.23944083545085
A,L,171.52777845587727,-44.10627220608942
A,C,163.18065473119313,-43.45840408202931
A,K,-31.011445381618152,-120.66901442117106
A,I,-66.27982699600807,-71.70268456346044
A,C,-38.261383149314824,-85.64442155929628
A,M,40.489190712864044,61.69276484678679
A,D,-51.74107965022351,-106.79461210248932
A,R,175.49828287673742,-113.6411665937498
A,N,149.24526919358297,-81.7617288095812
A,I,121.46541754045623,-75.19865260477165
A,A,29.112578279393784,-134.96531428805253
A,I,144.44117087575825,-147.66590250049256
A,V,178.6606664474208,-113.56007762933457
A,F,154.0734223836061,-115.38331618501407
A,V,137.39307751852607,-129.24315090290867
A,P,-50.907008187064875,-69.76991273066183
A,C,116.91238818063458,-48.57386192101462
A,G,105.45874536863927,-95.19266223005157
A,H,113.1607555691243,-125.81888745369832
A,L,67.17298295217631,-84.23878787019443
A,V,1.5798348466131198,-119.84253363908607
A,T,152.10634806961247,-131.40241792322612
A,C,-175.00889015928192,-88.91539150076042
A,K,-43.46242594842179,-60.12618705652857
A,Q,-62.03730413236825,-65.78142767620807
A,C,-57.93967502008653,-54.696337558594806
A,A,-46.125266458757004,-35.95868972769482
A,E,-42.419547156490616,-73.89107538852032
A,A,-51.28378327936826,-56.74387116663576
A,V,120.96701049083522,-67.84178996773458
A,D,-34.624483864728965,-71.35005427120552
A,K,144.03505359371977,-137.7694344168651
A,C,118.90834322001125,-34.872291973810306
A,P,4.371171021558493,-69.75427691490526
A,M,-37.99078868635567,-121.90234398756745
A,C,0.907302717215114,-111.68055141525537
A,Y,30.40975917094134,47.71588829356297
A,T,114.25959456413749,-89.34617886461963
A,V,115.83389271390709,-39.572686535514904
A,I,94.64970392208997,-85.06931890250327
A,T,19.696957798682046,-95.80847355374091
A,F,156.64446652924454,-164.58304699158788
A,K,88.35374190217539,-133.50780278563482
A,Q,158.05625960063222,-88.40976782026662
A,K,143.61387784769178,-120.41532089113683
A,I,160.1724069746672,-93.01965111752257
A,F,42.98743402367939,-128.70540807523167
A,M,-45.14111007613448,-35.01134515892881
A,S,142.09087197188038,-121.89144413494738
A,S,153.4081561352789,-171.5051021198461
A,G,158.7238255539634,156.73064717140926
A,S,120.0167486803338,-168.87783262965476
A,S,177.57266001397107,-151.75826561075115
A,G,150.74164096449735,142.4510850450844
A,S,136.8829346594968,-81.48711086664676
A,L,104.21541262494357,-124.77428977994708
A,Q,120.42113495341137,-89.07227554082941
A,K,113.25346605663827,-106.18110817991536
A,E,152.49836380997058,-152.25041696074607
A,I,153.64611703075687,-91.98207698241823
A,S,149.98688577817884,-107.25670754457775
A,T,-32.01321004910567,-43.1157682199369
A,E,-57.50746270501031,-58.333825476775246
A,E,-52.34367471831319,-68.19434891463587
A,Q,-61.368147986131575,-46.2240147508349
A,L,-47.63612807511068,-50.438905541237595
A,R,-15.649162981012754,-50.711222021499566
A,R,-64.17694480474027,-86.81104511530684
A,L,-45.561848459014946,-70.30821785748252
A,Q,-32.543432236296425,-47.58289317600709
A,E,30.500184067366636,-91.42207806693467
A,E,-32.37618111544328,-132.02223471494818
A,K,-43.47275114521888,-96.1067120217521
A,L,172.84000052454394,-51.39711798069618
A,C,145.37933399234254,-41.06641152125406
A,K,-33.148929726288365,-101.7887893173449
A,I,-77.9404124276022,-68.39000811894441
A,C,-30.33125894686978,-74.24178438633523
A,M,43.774183259114714,56.380803915494226
A,D,-51.98019394369897,-126.29399947827913
A,R,168.426912363705,-95.41794474778727
A,N,142.54443382483493,-86.09815450215842
A,I,119.57884100967439,-77.31113080129747
A,A,23.426827264526594,-134.97035689245777
A,I,146.9443719321514,-143.23449259897268
A,V,179.0886690980229,-123.98688970273533
A,F,154.47584243042647,-118.97029532157673
A,V,140.32024762015374,-130.15690863863043
A,P,-51.61499188998144,-69.77771225342015
A,C,107.33032842846386,-42.01262109651622
A,G,102.48594590779072,-84.50084042468335
A,H,96.9110959189495,-130.11743182709404
A,L,44.99634029653498,-79.27165854475585
A,V,26.092893697941356,-98.50864910716714
A,T,146.97769765814724,-146.60626813937728
A,C,158.2297481707406,-98.54281788425911
A,K,-48.52708405981797,-34.266704430192334
A,Q,-60.57885608296345,-57.43031875559841
A,C,-61.11539117489831,-64.38179640185817
A,A,-39.08264664737321,-36.80012355369645
A,E,-44.27848093437175,-76.67452776809068
A,A,-48.67718898474922,-60.2145481285173
A,V,116.48414699250128,-71.63266558931149
A,D,-34.92766786788011,-67.06562561728182
A,K,150.4576690197804,-136.9962318063919
A,C,115.95949560137106,-36.06349819424637
A,P,6.457083741416895,-69.82132632723176
A,M,-37.138849718939575,-123.59646712371726
A,C,-1.921262883502422,-110.74326773573011
A,Y,26.842820792244563,52.007599846106515
A,T,113.4446900172003,-92.96066992211988
A,V,125.33189342868282,-40.85548184681975
A,I,90.84066481664776,-90.00678803145934
A,T,-24.27886820381759,-81.08105103366003
A,F,130.02000621040528,-124.35706261716851
A,K,97.88187583838086,-113.86356885478669
A,Q,144.46876284901538,-91.86266818690856
A,K,127.27495303426835,-101.48250613975435
A,I,-39.52603918941993,-107.94772890591877
A,F,54.979955560189374,26.70847052610138
A,M,-55.86810830814199,-30.86049327529882
