Chain,AA,PSI,PHI
A,D,156.46844314980663,-89.14349690620182
A,R,157.85509263455887,-89.3866087891006
A,K,67.99171522273359,-83.26799109470647
A,L,44.44795535290689,-92.84835696607368
A,L,125.58750348526783,-130.8616771167617
A,T,116.92183569050667,-103.37369293543362
A,L,144.17256139304584,-87.60948002613691
A,E,173.64704734651988,-78.35795523303547
A,D,-37.222839619984974,-92.77913256556614
A,K,148.81629234544292,-58.66503538756313
A,E,118.80485637030138,-94.01143352973874
A,L,-33.34140997393492,-62.008441501258524
A,G,168.6559179706482,-170.56030433426918
A,S,173.0381520614433,-154.51395580218824
A,G,-178.45017384593498,177.61985338096784
A,N,-32.214067002411944,-67.47009072460428
A,F,-51.12018790824518,-64.21133788078726
A,G,-132.26406442224388,-178.94678265030748
A,T,136.81237308020175,-146.2339590969039
A,V,117.00676716613573,-86.8823828680405
A,K,157.59915251312384,-119.75559784521585
A,K,148.7932933857716,-82.64727232832176
A,G,-168.45328625334406,-161.06488915911572
A,Y,129.8856268002924,-146.23978968509056
A,Y,118.05634671843177,-114.22689809373041
A,Q,117.92734015436129,-76.91164779610891
A,M,-19.665449253593152,-113.88706263196956
A,K,25.973116763848715,-70.48567407048748
A,V,115.01122442353693,-114.66998475962707
A,V,135.45884423749615,-72.46748081737194
A,K,128.06666902924474,-99.85074584443441
A,T,138.03902294014034,-74.0974964094758
A,V,149.92740488587015,-139.42914910074347
A,A,140.68234991769287,-98.93162732247073
A,V,125.02258434364558,-131.10545016600358
A,K,104.38147618494393,-92.84105532822744
A,I,127.23882536911732,-100.22695522023571
A,L,137.90023961803172,-80.07799570185627
A,K,-20.15911882281527,-85.66006834947873
A,L,158.05288697894227,-77.34611818319588
A,K,-34.07978371825892,-70.98925098292399
A,D,-38.08234817164632,-56.56170515436009
A,E,-49.46336548008972,-63.02701440096372
A,L,-40.024381239424464,-60.63446962324167
A,L,-36.01115553209397,-64.1037430798033
A,A,-45.33610256708473,-62.36275424892987
A,E,-43.467563861078624,-70.17849858318856
A,A,-35.758438765656564,-62.75259628802154
A,N,-41.302022916414224,-55.79612461391316
A,V,-48.2060257574903,-61.70907532074031
A,M,-30.44541135824297,-66.50719947436801
A,Q,-37.68449357859596,-60.70147837125726
A,Q,-2.2294955825517766,-86.47497552906955
A,L,140.73289879186476,-100.78981616976421
A,D,98.54610341437304,-151.63496383768842
A,N,132.46587743326037,-157.13423035002575
A,P,-17.158428779394225,-55.214113992880556
A,Y,12.156360207052419,-109.87148427127721
A,I,141.51500952175013,-112.62435372543013
A,V,134.10602937498015,-58.47589815455855
A,R,143.83524354105884,-82.61819732899293
A,M,140.68476955208584,-91.98393121298467
A,I,-39.70068964965059,-93.18698312201373
A,G,-168.62334156634856,162.62659002523117
A,I,141.54149969508347,-115.7469276280129
A,C,117.55321060477391,-123.58615805047064
A,E,57.90928154711163,-91.85597723703646
A,A,-72.7377152077138,-91.93635471724978
A,E,-23.966853869200172,-124.57182110214582
A,S,151.16270106710715,-143.27924508655764
A,W,130.60034590851072,-56.63002119648975
A,M,116.53781641276032,-139.9267027104961
A,L,119.08272356576916,-91.82620823263176
A,V,127.76673113257974,-108.320138784351
A,M,155.2148321272791,-129.95624346937495
A,E,154.6538248346305,-59.36212687145669
A,M,122.40451634976067,-100.43088105011364
A,A,105.98572604169739,-90.22690053280274
A,E,-30.902323160274562,-66.4927356087706
A,L,2.10478311862351,-90.23378357599137
A,G,-160.16412321897218,57.68271067356285
A,P,138.58619154299055,-53.81544017731739
A,L,-44.81083274308637,-55.307283369019075
A,N,-61.13630560250018,-66.18515971575631
A,K,-44.000111448891914,-42.47584854214327
A,Y,-37.28134593053923,-71.82221353507998
A,L,-33.42342506435347,-71.62832854932907
A,Q,-15.10199980864035,-56.61847984667282
A,Q,7.94603103647475,-132.20628668077583
A,N,60.69458327341266,-136.6584544587856
A,R,0.9543070005548905,-62.731020606913475
A,H,-9.874072773998616,-86.25508925069516
A,V,129.42400716972287,-65.54042200451913
A,K,162.42030230858572,-93.79149678335813
A,D,-48.952519645845626,-58.58313351098083
A,K,-40.600006571928645,-43.99953590482367
A,N,-38.713781808674135,-78.40328462079671
A,I,-37.58811341912142,-60.45297203117389
A,I,-51.333003802652755,-63.17939431127803
A,E,-45.62752859902852,-46.87723619585546
A,L,-45.085870337342136,-64.53308050758834
A,V,-25.087239026405292,-74.51036156961455
A,H,-25.99394174820582,-71.97266976303649
A,Q,-43.59558824711712,-71.68419581393466
A,V,-46.92040762160373,-53.60486553926428
A,S,-34.265344235828884,-65.92756731716723
A,M,-42.01338858214653,-66.91133254172969
A,G,-34.00540766644018,-71.02714486985396
A,M,-32.69052160823866,-65.49421452061502
A,K,-39.34390890086757,-62.174316355580736
A,Y,-39.864794387320636,-68.76885570656852
A,L,-36.79329278354632,-63.571466926609695
A,E,-44.735069063292634,-69.11810512002303
A,E,-30.71625938535775,-61.832349577093105
A,S,5.180246930764829,-94.50792330283883
A,N,48.69563806959359,61.077539410412705
A,F,146.48176305619992,-119.37120963982547
A,V,136.1961450701597,-109.10603204440214
A,H,-50.399400732565084,-79.70782512983439
A,R,-12.298623636023256,83.1530386116926
A,D,46.93533236351921,-147.84326502266285
A,L,115.56035480756555,-82.42721283962497
A,A,157.43974722019075,-150.0964597869888
A,A,-34.128224993453856,-52.84806384095012
A,R,-13.184155524038173,-66.08478386214729
A,N,12.81692510464283,-106.36573352350189
A,V,116.60124796619334,-114.74875538257422
A,L,144.81352673676642,-101.43518681736604
A,L,123.36860197466122,-95.98589158427843
A,V,-58.97689873139494,-76.73176308566718
A,T,176.74997016582805,-128.9820100253246
A,Q,-13.972631260906699,-55.648793622381916
A,H,18.762195904657336,-121.8780835021026
A,Y,110.94143419477213,-148.3258362819318
A,A,153.32466454289502,-109.00330903684619
A,K,142.08486058401056,-143.6642876470259
A,I,138.15331552954675,-81.44186398171708
A,S,-164.549963785704,-130.9947353967923
A,D,65.20208292669997,52.75333610634296
A,F,24.96805286740554,-80.56252823294443
A,G,-22.78135907790722,-64.00051726933602
A,L,5.717673965247251,-120.97318625762408
A,S,153.57823943053353,-77.11887759105136
A,K,134.11132569560152,-137.85552580662497
A,A,125.60019929868201,-80.6058005260911
A,L,142.37639779823922,-77.04693263245882
A,R,161.58400658178365,-66.86334321015063
A,A,-3.1683339277808584,-74.3230262545089
A,D,-17.715518363797518,-104.44434281538229
A,E,159.13354659910968,-113.55824561677777
A,N,1.1841390692479299,-107.62625397868005
A,Y,161.87838201505446,-161.42271726667994
A,Y,139.20827190809197,-108.51441153176455
A,K,128.08974478740723,-109.37844987573223
A,A,-152.62781297440674,-99.62053387541236
A,K,-116.55483684445136,80.4744496745122
A,W,161.75135795036894,-116.09103608055094
A,P,74.02206887626109,-79.74660214410719
A,V,-39.83792431802604,-60.19538236625426
A,K,-26.60877103495264,-47.916051874143065
A,W,-1.4648681427633985,-104.04457184726016
A,Y,142.910547547796,-89.82342070114139
A,A,165.95148375428008,-77.7573829466355
A,P,-35.57753120108403,-66.59797522427118
A,E,-14.22753372665524,-62.83173214296136
A,C,-40.41601944093397,-87.69905160134739
A,I,-34.87575487527419,-81.2174962799631
A,N,-33.1393952850724,-90.2425376201493
A,Y,-22.288614367790608,-116.51170213412617
A,Y,16.52921688099981,76.64516808875211
A,K,130.819242662407,-88.2435665961754
A,F,121.6188859814119,-119.4009069851076
A,S,-178.66963957225403,-132.50036848436883
A,S,-29.35719477102936,-65.45664166363562
A,K,-28.980159577587976,-71.38823767948593
A,S,-43.18046090487528,-48.42221236110954
A,D,-24.021231018679764,-76.27929329821173
A,V,-36.934438298284064,-60.88072554886285
A,W,-40.00645728012613,-65.00683152859338
A,S,-31.03668884718428,-71.56650342463264
A,F,-30.61389561878574,-65.60961143705595
A,G,-35.862199710400866,-72.31013930849883
A,V,-34.4933490565393,-76.01219073662578
A,L,-37.66600280417395,-61.61137424714647
A,M,-35.488223233628005,-72.49222969269321
A,W,-46.951665105971514,-65.80018898021608
A,E,-42.73040110436932,-56.10289308195521
A,A,-49.023017663268504,-56.626128187909266
A,F,-8.592251823472976,-74.78895636838067
A,S,0.5205294055599529,-104.9566623897229
A,Y,50.39216421956285,63.59149469471898
A,G,32.75698975306112,69.4421508652443
A,Q,147.78487194274274,-84.10660315010753
A,K,142.58851599271387,-59.396705763854854
A,P,160.5736670096858,-81.82480350585736
A,Y,46.82659505866233,46.90815815831123
A,R,133.1158760263902,-44.10435247859187
A,G,16.08782542317942,67.51989140985393
A,M,141.8169580771323,-114.14579509280144
A,K,162.07628567706303,-83.18916063886398
A,G,-58.116641325377444,-36.07293380809985
A,S,-28.113606438904526,-68.9090949470433
A,E,-36.96458723548813,-71.47853126032473
A,V,-46.570689035754555,-62.10915787224377
A,T,-48.61363856238689,-58.891800506971336
A,A,-39.11859334546428,-54.89387296258454
A,M,-44.69696322591307,-71.49830230689128
A,L,-49.72858833481534,-57.7035576630219
A,E,-43.22254322240205,-53.20366846314691
A,K,-8.13893001071884,-56.33162363288616
A,G,12.535555474885474,78.42495650414007
A,E,129.38811566809662,-83.91112156226232
A,R,166.7712534626201,-110.75898500537919
A,M,146.8217710931045,-67.82435002418207
A,G,163.44226901006292,-62.698941711858474
A,C,120.86624359105514,-60.668342216446746
A,P,162.9921159067381,-65.21289402048991
A,A,-66.03465900277597,-40.760904607038185
A,G,34.88593847905315,-107.97830533398778
A,C,132.6666456113633,-87.71615660482269
A,P,143.49725111007382,-63.47917369975481
A,R,-35.59359324997615,-67.01274358392504
A,E,-35.21205437461375,-56.94982795863764
A,M,-35.48783287828923,-73.2735645610018
A,Y,-27.098935167805504,-77.11422487669577
A,D,-37.07693154506687,-76.79807906285362
A,L,-45.88241122929538,-51.49298781984727
A,M,-35.373007315056505,-59.64412977879827
A,N,-27.592253313336933,-79.41624682877863
A,L,-50.749116129106575,-66.59857720765386
A,C,-37.504692755991975,-51.85961547603791
A,W,36.046080195518826,-92.41494003122203
A,T,120.07858445794487,-61.35717505991232
A,Y,-50.30185669325449,-59.290996659417694
A,D,122.04539702920009,-90.93721545756553
A,V,-33.3895800756638,-61.17119416252989
A,E,-29.77400549172282,-61.85109719002554
A,N,-9.498053534953527,-99.72940589306344
A,R,136.74698846825245,-68.03086438538601
A,P,140.20958734101544,-67.74316234971809
A,G,172.29172120949673,-79.67860952212938
A,F,-6.35689250852802,-61.391243275679734
A,A,-45.371603995160626,-72.26656674834433
A,A,-32.99590163526198,-84.23583616434965
A,V,-45.26955034763667,-60.775132973962634
A,E,-41.98275496952516,-68.45817887832769
A,L,-48.55319956031632,-55.73440928926326
A,R,-30.479080934502562,-60.98379289130342
A,L,-37.0241651953886,-84.01340431990272
A,R,-33.57084097466666,-64.75561529028856
A,N,-48.766071295088295,-74.4738385661546
A,Y,-19.031220219451285,-71.30835410621735
A,Y,-33.49720647278134,-68.6637904668901
