Chain,AA,PSI,PHI
A,I,135.29505458949097,-116.72242235618916
A,T,155.4681140771668,-84.97316262477905
A,A,-42.252094762714975,-58.79678054489158
A,N,-44.52136500304581,-65.31094644489096
A,K,-40.85290845768401,-61.63732639315042
A,R,-42.01665416913019,-65.44094794165211
A,H,-44.92564106762861,-59.69133509424611
A,Y,-40.307375778045056,-62.84391551880589
A,L,-36.464119161828904,-66.50910946073671
A,E,-35.35902889646861,-59.728642907070515
A,K,-27.743149056449756,-67.55652291492493
A,V,-0.5375404494743135,-94.28681980430426
A,S,164.77441728065284,-119.78036665697209
A,H,113.21065738228451,-129.48112688606057
A,Q,41.18222910334027,56.805678557599954
A,G,0.3730435513235573,83.09957688387134
A,I,129.41671875157652,-111.73419754858317
A,I,97.7349047866866,-92.86950014168644
A,S,81.32505892165378,-98.9853723630756
A,A,140.28120904680495,-108.11102217508174
A,L,125.20745449403098,-93.6705707059167
A,A,116.59321324909453,-104.4877132970942
A,F,47.99163891225378,-147.01944325047086
A,D,2.705387884561263,-93.92840677609033
A,Q,132.6256283722134,-54.41961370882315
A,R,-76.17246113738365,-118.92200261914938
A,G,-45.31321643688382,-57.15218754700161
A,A,-35.99101046263376,-62.11612239300938
A,L,-43.060842889561656,-72.26387611447545
A,K,-40.198088069132986,-53.769412873237954
A,Q,-45.75457565767527,-63.12417142659886
A,M,-34.17462919391144,-68.06464857219707
A,M,-42.50189698138789,-71.69599314722628
A,A,-13.676270447648488,-61.46510820910362
A,A,2.8517616196947313,-83.30703265707831
A,H,-4.007630220237997,-137.77689012177535
A,Q,166.38444443033626,-143.47656274240333
A,E,-57.71880200543812,-65.73648211282851
A,G,-168.265338538554,-90.31675671309615
A,E,141.21343767463202,-65.34058974620297
A,A,133.9803746281827,-63.036364200607
A,T,159.44235916094985,-78.13242595532135
A,V,-49.787910556948354,-53.664000136791024
A,T,-48.66030194137708,-47.45384719341104
A,Q,-42.32080532382626,-65.36626510693986
A,I,-48.071328542847986,-66.13516100476285
A,E,-40.98966494026457,-58.85942492237766
A,T,-47.224608395938496,-70.02819657356153
A,L,-35.644119553882554,-62.6111933268705
A,K,-38.81823469541705,-65.09906592405763
A,V,-45.72506766049893,-63.907009618850495
A,L,-48.02792429589163,-62.435717009123266
A,V,-38.871254819921354,-63.37710694318403
A,S,-52.44494062772049,-65.12555104539867
A,E,-45.78627434196838,-53.13818553349551
A,E,-26.035071360471747,-96.04991400818339
A,L,-21.393264692675135,-105.15501236946592
A,T,-21.883991404767446,-61.067805062026125
A,P,-12.876417737729744,-61.99692117030653
A,Y,11.524824346425769,-117.30097664705528
A,A,144.60412301494938,-128.54060004435834
A,S,-23.867921748626113,-71.36762271402513
A,S,166.32962200321973,-160.31619761564272
A,I,139.06597620432552,-129.69570780754546
A,L,125.64017775616394,-99.8882066622719
A,L,163.65780391535617,-130.60660269797654
A,D,146.583568644755,-100.54022709858704
A,P,1.825671173377062,-84.61820984984476
A,E,-45.236820383994136,-80.24209375378554
A,Y,-18.270899890324394,-120.90543122098315
A,G,3.64463518527902,-88.68709978638097
A,L,-36.4456823316327,-64.80167499995535
A,L,-43.49864903039788,-62.622024680659905
A,A,-19.356046467513337,-63.9921670734253
A,T,-25.49350631698551,-70.9033634229468
A,K,-5.3420329537409454,-88.47592218845409
A,V,14.718406972762091,-115.74585196877078
A,R,143.6783734316971,-66.45038126536564
A,A,157.66738923400578,-63.75473662059617
A,N,-52.66818685068958,-46.52429111921933
A,Q,-7.275632493491173,-79.68779703135974
A,T,114.22784290326102,-82.14170596466074
A,G,170.2671799062698,-76.77613098486073
A,L,132.46182935805575,-126.06796757167831
A,L,136.43057455328022,-114.37004769819997
A,L,133.87706948804265,-115.83559376013008
A,A,147.31533727396473,-71.16444612203584
A,Y,-23.46302193910349,-117.62629736181779
A,E,151.6595952769778,-81.70018288623614
A,K,138.45365776956285,-63.47417893403231
A,T,146.86577552178127,-71.2327532160662
A,G,-158.54372836290997,70.57935119820648
A,Y,155.41768843853924,-170.4794091169803
A,D,108.87588121199268,-72.4499950840909
A,A,-6.267471575672775,-74.11866871670595
A,T,-12.177218465190075,-90.88123622569692
A,T,159.5020518134149,-119.65625967142364
A,T,-11.570121964084677,-90.81337459591963
A,S,-35.83105650031457,-77.41227221715974
A,R,57.85089083227377,43.292884467723816
A,L,134.99378714871577,-73.87986271464659
A,P,149.30718603976442,-67.23658507339916
A,D,118.1290106377759,-158.42629705005473
A,C,148.16063540088194,-73.78491659655161
A,L,123.38706866301132,-52.730585603295665
A,V,-18.620032362907526,-65.38307957039844
A,E,-1.24091039437654,-94.5566516481888
A,W,153.52324366691897,-118.81772135384313
A,S,165.83097070116887,-137.12607472708595
A,V,-43.82138622013166,-56.084237690754804
A,K,-49.295772251670456,-48.0763546924825
A,R,-34.0803511072306,-72.39810676355111
A,L,-40.46198717224437,-65.43213721152674
A,K,-46.8905110989087,-62.084783874858445
A,A,-31.684947936632096,-56.41057016836499
A,A,2.7797524555681044,-82.1085622347336
A,G,1.5679642995149918,105.26366945510166
A,A,133.7459376338213,-59.43650257450198
A,D,-14.168181982774,-93.18027458806033
A,A,149.13038525978135,-155.17294725957578
A,I,125.29102779681283,-107.39396880661297
A,K,133.72984057405262,-109.69942433954589
A,F,129.12928759247367,-130.15520980531286
A,L,125.7021842104669,-94.44442495751736
A,L,126.77973263006575,-121.99365802079875
A,Y,129.76337863562483,-80.78428884879486
A,Y,125.0686218185948,-138.8032638767048
A,D,106.8029211278766,-108.581081391168
A,V,-23.161731680608952,-60.72550014326417
A,D,3.255357396491936,-97.76972515335332
A,G,-171.66625600801714,-77.83923137326951
A,D,123.11375908108619,-53.8606678885336
A,E,-37.09350625559812,-59.1944806728226
A,Q,-29.56783953790528,-78.12626041172304
A,I,-42.58740735195514,-63.38516075104703
A,N,-32.549742508925114,-72.16621250529852
A,L,-46.0920194671283,-58.825151138005886
A,Q,-44.63526929237426,-55.23682900834703
A,K,-39.66859101693206,-70.05076930245298
A,Q,-45.96279094268562,-64.2508023635735
A,A,-41.72767510720847,-56.15140744480095
A,Y,-41.84925368869568,-64.56252632060038
A,I,-35.75373519941089,-70.09366333508487
A,E,-44.45175834060213,-54.911381418699555
A,R,-47.87486070812939,-60.763446707994156
A,I,-43.26575304203114,-65.48860309607448
A,G,-38.91537266682436,-58.95987303771895
A,S,-42.995377236349576,-68.78883426940968
A,E,-50.256287579743166,-52.17759471736862
A,C,-31.30374653526001,-68.11338421375945
A,T,-44.50972454132061,-65.05939661460614
A,A,-44.66826959781534,-66.78655358922234
A,E,-7.009411761193323,-78.80638018738179
A,D,48.08794194296936,59.06149560348631
A,I,140.8098022561169,-129.08667514119912
A,P,132.41052831232764,-53.640316006402074
A,F,113.08131048754501,-105.59297143637262
A,F,113.3556364589836,-97.56031440338508
A,L,119.11032916958425,-98.60524482563419
A,E,121.04639295799237,-93.1464868798191
A,L,116.7623371737097,-106.61093830375322
A,L,114.63525937618466,-107.49703728243108
A,S,152.43398030579974,-77.67815549711204
A,Y,169.92535205917517,-160.77078574845183
A,D,134.45327910866882,-116.77462866815316
A,E,-23.98555652633634,-55.23682639777144
A,R,-3.1274093894215618,-102.6689586151477
A,I,113.97168316983927,-123.71907910866102
A,S,-34.91635926907916,-75.7049472196494
A,D,108.4104738989822,-98.79709325966071
A,N,-19.405147523275417,-65.37417652392045
A,N,-9.201404743776216,-85.72038649611896
A,S,156.62383968523858,-77.12494528673058
A,A,-34.5266797340273,-60.47960040639527
A,A,-42.397179638578585,-62.306232641097594
A,Y,-36.27377159159032,-71.53439975281434
A,A,-39.31594165228232,-52.40141353070493
A,K,-23.991290678950314,-66.23829281513784
A,L,-17.16734145000312,-98.64009722361803
A,K,-47.941233504859646,-51.737898409346705
A,P,-42.879303024209065,-59.57743381248407
A,H,-39.18460534673815,-66.80262344648231
A,K,-40.25290987881055,-68.56095937582324
A,V,-52.73438795798059,-74.73479454457862
A,N,-36.1589327805792,-66.45598788193178
A,G,-44.02742180012786,-66.0863597307123
A,A,-46.55127898130434,-61.349220757561696
A,M,-44.47986578463288,-56.34242311086839
A,S,-46.34674391254,-61.6704247916416
A,V,-54.839076500362225,-54.432473979742426
A,F,12.104196047892612,-81.53748548217321
A,S,-12.694810430760215,-84.81531478336444
A,D,139.16025952135288,-61.27204374756806
A,K,-32.13370410992829,-53.85930628601285
A,R,-21.353785382224114,-58.125122668472095
A,F,-11.976052826316101,-89.50859159285265
A,G,28.924649471632648,63.53084843250737
A,V,134.0515153028416,-84.06751628792645
A,D,-40.907516162817416,-98.77308292859135
A,V,134.90015696365515,-136.4170343946623
A,L,129.7767339126056,-92.50936738656986
A,K,114.24707495382783,-107.96526731763558
A,V,165.075677883738,-135.39825400646393
A,E,154.77103648594,-83.19657008950088
A,V,141.66194394444992,-62.24752479032115
A,P,-14.543144596873626,-73.60923227274678
A,V,164.5437048986668,-118.10978093595142
A,N,98.47274275542536,-90.10794495197219
A,M,-32.70957263924808,-53.433628548646524
A,A,-8.302285959590401,-61.226857412745666
A,Y,15.022713684504279,-120.13933624571085
A,V,136.64005793125145,-94.8219697532772
A,E,122.42821085196084,-54.21039274713396
A,G,-5.721737252966918,101.74991277277027
A,F,-3.6884797637090347,-118.6784726860571
A,T,144.70315889747485,-145.0293236138646
A,E,119.68797128921308,-95.52030948700074
A,G,-160.41601905650555,136.45896276993366
A,E,134.25904442687195,-58.748108651862175
A,V,121.07359004737351,-122.88624484898897
A,H,-16.143027968120958,-112.87871162921167
A,Y,140.045088280925,-126.9265937095889
A,S,171.13086707931788,-72.63415248935964
A,Q,-36.42168763149709,-66.41607177407336
A,A,-32.91376772113379,-62.42232940354183
A,E,-38.641784633037545,-77.85938581081163
A,A,-38.797609601559245,-65.04415111122495
A,I,-44.179791551651036,-60.34567013963652
A,K,-38.9227188049025,-62.614491386661086
A,A,-41.8679889767724,-63.93120699746171
A,F,-35.19780361645044,-66.62798790803295
A,Q,-40.12178858727799,-68.79649547746467
A,D,-41.079816307296895,-62.81831599142494
A,Q,-45.25310438864646,-57.01306533018177
A,E,-31.78605922223627,-65.21723481106673
A,A,-16.32919354922549,-81.67864057732821
A,A,-26.594636308020007,-70.12629303899662
A,S,164.70446883520822,-142.33859519764738
A,H,-11.98405083100052,-106.76189708148974
A,L,151.61711835088772,-73.1989427343914
A,P,142.8325069474967,-64.42978379797884
A,Y,152.7074099527209,-135.80768241216535
A,I,150.84816412732502,-126.87682773624266
A,Y,132.92683501785064,-94.10831155243008
A,L,150.3790564599883,-86.68825964085268
A,S,-18.5438283777926,-93.23405130933328
A,A,-129.34721391890363,56.614313545783965
A,G,3.110669569312766,-96.97578725133044
A,V,156.42123407351195,-74.37321398854561
A,S,154.70123792367508,-70.66426361347675
A,A,-43.01009876257107,-50.86781179996485
A,K,-50.14439118950383,-63.306910542731764
A,L,-34.49786238776627,-67.02601130371646
A,F,-51.59679495696635,-59.589082417829765
A,Q,-44.689969369808836,-56.01628159159764
A,E,-34.15890091336477,-63.084395307110945
A,T,-45.50258738679422,-63.387982774330936
A,L,-43.74144597588505,-61.02879408439748
A,Y,-46.7949666426234,-61.561323028575124
A,F,-45.690962205505386,-60.523198314986324
A,A,-44.905810752636604,-58.30104866640785
A,A,-39.500667497460036,-66.97860092258456
A,A,-36.68893112164406,-61.647496035062424
A,A,-20.5253605669305,-73.71715483406646
A,G,6.606008674369628,114.46510380636597
A,A,132.087691294742,-71.52878234857225
A,Q,75.72910073278968,-113.10250690800137
A,F,143.04561576944783,-89.05904330366972
A,S,12.455389836954824,-96.43796404440342
A,G,-162.98240383136982,146.87266367091755
A,V,156.94781929475124,-144.09861420221048
A,L,94.90531971384064,-117.74607262793897
A,C,124.93519129766305,-105.53718729092866
A,G,-92.5970252444923,-118.94435301399062
A,R,-43.92817563411085,-51.98920339854404
A,A,-39.51838573118665,-49.8991413390728
A,T,-50.39903617821544,-79.06537896336786
A,W,-5.983962500607128,-110.50076661288897
A,A,-41.42321317763038,-49.38751001158151
A,G,-17.53940600200408,-65.62236206680258
A,S,-22.055184718607514,-75.0963862682246
A,V,-55.74364420767415,-61.12360430413948
A,P,-41.56348734008535,-60.476072755322406
A,V,-44.531031506816696,-59.738043617610565
A,Y,-44.79282626875052,-65.799610274894
A,I,-45.437578188856584,-68.66308262850367
A,T,-39.07361549895591,-83.5096689131972
A,K,-13.037027203747211,-110.45115246213444
A,G,-172.8757363278679,94.13288492998197
A,E,-59.547029718604776,-55.13874924689507
A,D,-37.184689491517396,-60.37859222385893
A,E,-39.01905453153406,-70.85573108391455
A,A,-39.35594575559505,-60.001844556984025
A,R,-44.156342411990366,-62.92479740147212
A,K,-38.60101125790179,-63.23091545080699
A,W,-44.46013401685649,-64.21413070482457
A,L,-43.78427458293579,-61.90943222082384
A,C,-13.948930394490707,-69.96119722137591
A,T,-81.15176446029928,-116.58920800372071
A,E,-43.89281689365963,-60.05133014624924
A,G,-47.3303704622114,-61.6904993520827
A,F,-43.66731176990381,-58.612508140538736
A,Q,-47.931209835983864,-55.60067487845708
A,N,-48.30277224678796,-55.827563414320686
A,I,-37.45847199992478,-73.40269415546196
A,D,-41.531006233140936,-67.51263679961696
A,E,-46.263456506582905,-61.714847622664145
A,L,-49.07835315749892,-54.049826358571046
A,N,-39.02952356358612,-59.35289768213237
A,R,-50.33576083273533,-60.42647858466307
A,V,-44.46970187563709,-60.40350945113073
A,L,-48.759020444269574,-53.238949870456075
A,E,-37.038453762913115,-55.546778004306205
A,E,-27.395829148499384,-81.95992746317205
A,T,-34.355626813292425,-111.41532770152618
A,A,150.48673160676537,-76.23253468969614
A,S,124.82715198645975,-109.56113915702853
A,P,142.71360867931054,-56.190852815104286
A,W,-14.783441760759434,-67.53204527099433
A,T,-16.227372211426022,-65.66468606272059
A,E,-19.01710779841336,-79.60777125512278
A,K,-34.31864617746616,-115.04152659098851
A,I,135.59753289102744,-65.21081149249345
A,L,118.47861513654699,-98.59706463128835
A,E,147.47306713089725,-68.47018371872039
A,H,148.83504470969234,-92.76356018222482
B,I,144.51284380376666,-108.73152765557337
B,T,160.4412795223274,-87.5416671795585
B,A,-41.25857885441668,-63.47918599915001
B,N,-39.71817892430695,-68.77504134274449
B,K,-44.13984724744587,-63.926355773320175
B,R,-44.24088450904356,-59.639900552514206
B,H,-40.01548889247114,-61.3984652945095
B,Y,-42.67025542836936,-65.3275158640062
B,L,-37.67746137660543,-61.110283123319384
B,E,-30.76823477002911,-60.63390344810894
B,K,-31.45072732978584,-71.58860306460592
B,V,1.0179275432528012,-90.42904854214615
B,S,170.84033357361892,-120.99431289484377
B,H,113.73867466540494,-132.53064227447118
B,Q,41.71812278055074,57.20059471053845
B,G,2.0777430270346224,82.0724595300015
B,I,127.25261001953035,-116.12201985725731
B,I,100.55271714554071,-92.3270237518222
B,S,81.498137201159,-106.39505621887123
B,A,144.27106820081292,-111.12148987183026
B,L,124.33038082364018,-98.60360121581952
B,A,119.07738331303383,-99.24518802121656
B,F,50.43645057013057,-148.85462983708592
B,D,4.592081601447114,-99.79556051869385
B,Q,137.40314213423068,-61.61949571039929
B,R,-68.86922731033782,-126.00071492022563
B,G,-55.481200972781096,-56.74517586460283
B,A,-39.37534870429349,-53.943854779747056
B,L,-40.807609752280655,-69.9765812130142
B,K,-40.535228251674376,-55.9530184721441
B,Q,-47.93112512024066,-65.15751733564286
B,M,-43.236958312784665,-58.94519509645715
B,M,-40.710808857665526,-66.81081013594947
B,A,-29.546645309964248,-61.1525237001933
B,A,10.580142148931458,-75.36372523867125
B,H,-3.6493704084116017,-134.33298876330755
B,Q,168.49659396942855,-146.31732377150257
B,E,-57.30061959922317,-73.16447129097065
B,G,176.75729695121967,-75.96361223674896
B,E,154.23828695385177,-69.57412903094679
B,A,133.69961511408678,-67.94052559746395
B,T,164.6938468822055,-87.39872396870534
B,V,-41.37834681543714,-58.44400920639771
B,T,-49.102299804288414,-58.83135780688179
B,Q,-49.41487991324048,-59.162236186236115
B,I,-45.15160189026249,-63.01169954920882
B,E,-40.66478343357128,-62.337913434107044
B,T,-52.102581459685915,-68.87242851924496
B,L,-35.203189966309765,-59.442449822071794
B,K,-40.09138457762677,-65.02728909821957
B,V,-50.54945810406581,-59.436786984629954
B,L,-48.791847218584216,-57.04531533955521
B,V,-41.025092520547076,-64.63617313012503
B,S,-49.813641784378056,-61.71503660064549
B,E,-46.896177160326594,-59.43060879918677
B,E,-25.086311139287,-92.01224724471915
B,L,-19.18630555037215,-109.96902318615766
B,T,-24.185126007556917,-61.824017504079464
B,P,-14.507438301035112,-61.95613426635921
B,Y,15.65584972216724,-114.03541614173761
B,A,144.89247151423768,-131.91156844385122
B,S,-21.464506058651583,-75.93935220307944
B,S,167.22226412565954,-163.0322390342214
B,I,139.16655405301734,-130.54133007822193
B,L,125.6498700481898,-101.2638208209919
B,L,155.74638743144908,-133.12331339150816
B,D,148.16807813358184,-88.26510478796568
B,P,-0.20642257931974398,-86.15181176234132
B,E,-51.25702228730789,-77.19932674162338
B,Y,-20.888375559124682,-114.21025397945962
B,G,12.707524251819295,-93.96129313751634
B,L,-37.11573336471976,-69.19947039257443
B,L,-39.51738663987221,-60.109477356959424
B,A,-18.47029017532559,-67.78771294500274
B,T,-21.065994967263595,-74.19542366380442
B,K,-4.6050220508919875,-86.16181540194955
B,V,20.53694211724301,-121.65306079247942
B,R,143.79464187153923,-72.86538330907635
B,A,155.57486736200377,-61.271823049095296
B,N,-46.60686813946664,-45.83875177913378
B,Q,-0.15950312473121833,-87.93713728570461
B,T,112.74120714026475,-82.93049656593989
B,G,166.9539494766193,-70.01378081723695
B,L,133.9495979495547,-123.56710167637821
B,L,133.05599485212238,-115.1896813248579
B,L,133.9278104264831,-114.23622095335301
B,A,144.8790188676545,-73.602421775834
B,Y,-21.189502906650954,-115.146617118648
B,E,149.94321120068568,-81.87822404196675
B,K,137.3081347917525,-64.10824749010062
B,T,151.5519530761579,-71.7092701209214
B,G,-171.24270744493475,73.90089547844545
B,Y,158.4899907110251,-156.94143816937932
B,D,109.82322349715788,-77.57725970673208
B,A,-11.926041264564999,-74.82631052040544
B,T,-31.303979762635688,-76.18078070112492
B,T,169.47366630992565,-106.02329010012053
B,T,-16.13177923166459,-98.93180376931522
B,S,-34.89877880434828,-80.44850855862109
B,R,52.71998914543665,49.635364509339205
B,L,137.56587686502397,-69.23779709446103
B,P,148.41506952546607,-71.89038475440495
B,D,124.34854725158702,-152.76497324776363
B,C,143.82781530155538,-77.31873555933142
B,L,122.69823497929377,-47.62764541872638
B,V,-17.707352473942336,-68.70223940813015
B,E,2.584360648262632,-96.2754156196004
B,W,154.51280144890143,-123.09317865988037
B,S,164.89967057673533,-141.08749523278902
B,V,-44.28818790013787,-57.45016981208081
B,K,-45.64541101522599,-51.3397000809042
B,R,-34.9768047607665,-70.52403002744825
B,L,-43.798601930195204,-65.8139630334022
B,K,-43.37910914987341,-58.75385609456614
B,A,-22.623188405559205,-63.745167791776716
B,A,5.597455976092755,-90.25495683291987
B,G,-5.301422412264561,106.19392927614851
B,A,133.70823161570365,-54.296496193275075
B,D,-8.58348573982882,-95.73303023269023
B,A,146.27314244387745,-161.78023106469925
B,I,132.9576489898484,-103.25382215266279
B,K,136.777530882705,-118.14872565722641
B,F,126.94810757590757,-135.8177779429142
B,L,125.03922929742549,-92.94431635193168
B,L,126.43919951169077,-121.12388470788667
B,Y,125.69370671322207,-82.11991582862888
B,Y,125.86352892123631,-136.1122162980836
B,D,108.74172614535735,-109.44211298712187
B,V,-20.408213149267972,-63.89087519801767
B,D,4.706870410896877,-101.67994382265084
B,G,-176.44863006852182,-78.18225988091291
B,D,126.86143963950926,-51.655011227391604
B,E,-34.769837464558535,-66.22474691114044
B,Q,-32.769603184691256,-73.5349546886632
B,I,-42.410292986125995,-65.21115720109974
B,N,-32.69868685785101,-70.89198124816949
B,L,-44.70301797633442,-61.03068924883189
B,Q,-43.834476076646844,-56.526797408540155
B,K,-37.212369397170654,-71.05573695030095
B,Q,-42.76186001700884,-67.57297191963784
B,A,-42.15304121360548,-57.631978143510075
B,Y,-48.90499611800087,-62.34476216352742
B,I,-39.99176604815966,-60.21493259476663
B,E,-45.67960518551425,-54.61684280244907
B,R,-47.71918679224661,-58.08530812313816
B,I,-45.50377585182952,-67.06472620909405
B,G,-44.49360424502989,-51.34504323212287
B,S,-45.24127462756134,-64.5817940609121
B,E,-47.05405264008152,-51.523260270121924
B,C,-28.79698231399312,-71.53827578825873
B,T,-45.00945288579994,-67.4215026494924
B,A,-45.70063711277447,-65.29431095860662
B,E,-1.361574367919485,-82.408968213806
B,D,49.68760520366807,55.803759409763046
B,I,142.19576466437618,-131.65529848057835
B,P,132.57072977136772,-55.64626749590158
B,F,114.64212348772566,-103.73473273605737
B,F,112.75081387509941,-100.6931471254437
B,L,119.63431532914474,-98.00134443640354
B,E,123.32696452954129,-91.97454968898634
B,L,116.93896617082369,-109.236773256093
B,L,113.44588317310853,-107.13725226228703
B,S,151.63315346867094,-71.92476286233187
B,Y,171.94511649017687,-158.50218790582718
B,D,135.3853418592993,-121.53353719669101
B,E,-35.346520874782456,-55.541066349347666
B,R,-20.167573069768036,-90.89198580853663
B,I,109.28957247969404,-101.22823111684576
B,S,-46.909639503729856,-55.35474778444093
B,D,110.48092207985103,-106.76185082650099
B,N,-16.54027531299397,-64.62089624929978
B,N,-9.2116713785044,-91.23676322235234
B,S,159.64217898381673,-67.91870871074318
B,A,-35.23329393234118,-66.61690893512618
B,A,-40.27029113331454,-61.01652032486814
B,Y,-39.60377875016474,-70.39825575875555
B,A,-41.388027237598536,-54.167091742302624
B,K,-29.243669560420376,-62.17002274403278
B,L,-19.930202307578107,-91.87214493717552
B,K,-51.28235711339432,-52.94650849656418
B,P,-47.3259840799775,-53.48066815564765
B,H,-45.522187452086996,-57.384822188446655
B,K,-45.0531052126257,-66.75363797581636
B,V,-49.10420858896967,-68.97483369373576
B,N,-40.56102503234284,-70.6744370141106
B,G,-40.26072314286015,-59.73722141564352
B,A,-46.671088258250876,-66.8613711604661
B,M,-45.04056465801957,-53.98917663570113
B,S,-40.43101722864806,-63.18506172611122
B,V,-47.07392724811813,-62.94074082072962
B,F,17.512189845001064,-88.80996252475424
B,S,-11.846427232781776,-91.94072111483575
B,D,138.08695458627395,-63.1469836011449
B,K,-33.79432208823148,-50.391089243879826
B,R,-28.377573048562105,-54.134804818670624
B,F,-11.442829311359173,-85.80947967607956
B,G,23.098024185472948,62.796517807629264
B,V,133.87687886538163,-74.76041486194434
B,D,-41.88665947247327,-98.54227736646311
B,V,134.59334471434306,-139.4086316567486
B,L,136.4629097298933,-92.2480740458281
B,K,113.67514405604963,-112.19250766852254
B,V,162.7941023797605,-134.78319130915614
B,E,157.13309847726077,-78.09014424747464
B,V,147.2180247833572,-66.02410189078728
B,P,-12.929008229226701,-75.46707728302125
B,V,162.0985225957284,-116.90818917878109
B,N,106.14573463272346,-93.1506583105609
B,M,-26.361111028499522,-55.5961841210446
B,A,-11.862601635095574,-62.90097421267997
B,Y,26.197807384388916,-122.35665286002897
B,V,135.91855088458885,-109.16009495112871
B,E,128.1477787412186,-46.481852226337914
B,G,-1.4564164134618942,95.82190744047263
B,F,6.9503591541529435,-131.92639911467623
B,T,153.7719676624835,-146.88801819182407
B,E,-11.496164307272448,-97.76632105458332
B,G,-140.26974283657975,-115.7074510529034
B,E,129.37763415824318,-56.752054169915716
B,V,109.87945417861336,-110.1568941576791
B,H,-14.715157479497229,-98.05872448991464
B,Y,135.66039476060877,-136.87363174915595
B,S,164.92226990499591,-65.9668407679064
B,Q,-44.906738752762955,-55.605779008029266
B,A,-39.57326597202595,-59.865003705357125
B,E,-36.63138840622622,-68.3065648165962
B,A,-40.7246616860628,-69.77052793417889
B,I,-49.6434873783356,-55.01583486182541
B,K,-39.41515998681749,-56.00612908884066
B,A,-32.23738761531598,-67.72393176128055
B,F,-40.71317651237626,-73.07350511672999
B,Q,-38.22378645138357,-61.33380037433937
B,D,-36.55590042284835,-64.55894307999097
B,Q,-43.72897555101312,-65.62493783957493
B,E,-37.097513058303804,-60.30147095751862
B,A,-13.560029671239052,-83.09683364978832
B,A,-21.172121737208546,-70.00067126286339
B,S,166.20388651643339,-148.6409132106936
B,H,-13.0401405867251,-108.63108660765684
B,L,150.34366204367262,-72.92838590006647
B,P,146.61586335756093,-64.5167910753942
B,Y,149.98081687657339,-139.5887208903682
B,I,152.35393772136885,-123.72989084079745
B,Y,135.8736540239839,-93.64841525730269
B,L,147.7784694981138,-88.78994655240011
B,S,-12.990751162069618,-88.08868733388617
B,A,-130.54345977648984,52.64775216734616
B,G,7.7788581487377515,-103.53212861707625
B,V,159.08057100354404,-77.25062846460936
B,S,161.8907374166671,-72.43434727992478
B,A,-40.39690104381927,-50.77795140276479
B,K,-49.0973630667803,-72.80130175223736
B,L,-45.113209025148464,-58.6306367696142
B,F,-49.632801915645175,-57.4730901094213
B,Q,-46.723619492885106,-53.389689668737596
B,E,-36.36783874096454,-65.2982404386198
B,T,-44.8518790724641,-60.045689152661744
B,L,-40.92691579474146,-63.11496529257035
B,Y,-46.960301901956136,-61.770049366035884
B,F,-46.88238769070553,-59.37002589888908
B,A,-51.06563315134859,-56.08624539352906
B,A,-39.22979777689892,-62.68208578727786
B,A,-34.58443986980935,-65.60060636444794
B,A,-19.62698158945627,-69.82506042458773
B,G,8.467124453786084,104.85959028693127
B,A,134.50441768335492,-68.8839549706371
B,Q,74.4868673680509,-116.160377714062
B,F,142.63251170949297,-90.76554319390036
B,S,8.652259012882084,-94.44223517312868
B,G,-163.9839653268116,151.0696499398139
B,V,156.98977172986432,-144.1116242408029
B,L,90.28220286811792,-120.22541009032838
B,C,124.26276094218974,-101.3022514298924
B,G,-92.0829040607659,-117.42143022006945
B,R,-42.43618014577494,-46.45930575017026
B,A,-38.9085691573705,-52.18269328813406
B,T,-47.99533927890605,-83.48061765106013
B,W,-5.31031394814142,-110.09806753629182
B,A,-43.88312672178156,-47.78851923211909
B,G,-19.302300846360858,-64.32816908761708
B,S,-21.3777513529386,-74.40667564826354
B,V,-54.71423106305468,-65.34193115355347
B,P,-48.74098315411136,-52.18714862169308
B,V,-48.52526027147275,-59.5079609725956
B,Y,-46.70107363219666,-62.73569968487976
B,I,-46.24387439831438,-68.29064239683744
B,T,-42.876073421529085,-84.50813136904647
B,K,-4.437349598537131,-105.48471307982328
B,G,-177.65876680935412,94.39479027570633
B,E,-45.97705475073805,-68.73677224664947
B,D,-38.30420666515121,-64.70138857860339
B,E,-33.2548764949597,-73.34571545960748
B,A,-41.17779064505368,-62.42076686009063
B,R,-44.7756769456866,-58.60948790264557
B,K,-43.820511506939056,-61.346839950831395
B,W,-43.988815286833734,-60.27728471630978
B,L,-37.63323168489901,-62.07885976621743
B,C,-6.386586152047505,-80.5386623250524
B,T,-78.85282116813914,-121.60336769909684
B,E,-47.014844314240364,-64.1977778345898
B,G,-43.36578197637998,-58.580469729322516
B,F,-43.44418556294873,-63.22957623793858
B,Q,-50.2679222776295,-54.91222672379122
B,N,-48.227022163144646,-55.206151198053924
B,I,-32.993963222552445,-74.32947533823827
B,D,-42.94558031650699,-72.95965089861372
B,E,-51.83603857014695,-53.78231753560959
B,L,-46.54395524919316,-53.3930786895623
B,N,-39.90313040241807,-60.82390159097569
B,R,-49.56845144354183,-57.43657805868843
B,V,-44.74420623814308,-61.03650935148388
B,L,-46.37861596067715,-55.84827703228712
B,E,-33.8551503481147,-56.3148374148907
B,E,-29.573522008356782,-85.33391468198266
B,T,-37.686926373351675,-107.0515200332017
B,A,150.0985647281373,-71.0742234493161
B,S,124.22041210429222,-111.11612808271093
B,P,141.5415984272006,-55.55271521229151
B,W,-16.005532839243013,-67.93789386085864
B,T,-18.847725706791447,-62.17210399353968
B,E,-25.23068579464209,-76.70779927701696
B,K,-36.70683088787904,-108.66766252773857
B,I,134.8854521277663,-62.175154827370996
B,L,121.3874016837326,-94.88785081778387
B,E,140.6328344241455,-65.8907994446574
B,H,127.89331792997108,-97.30517666052691
