Chain,AA,PSI,PHI
A,V,123.93771356940147,-75.56014097847927
A,Q,156.96995864052488,-81.91538372598339
A,S,153.82210708542527,-110.14072866007163
A,S,139.54153854316937,-148.92943474932824
A,V,127.36534305643653,-122.83985918342877
A,L,-14.047583360171151,-81.29043164118758
A,G,153.16977414579725,168.28367358130868
A,F,138.44868371036662,-124.93554469897333
A,P,139.3984973819966,-58.226221834755606
A,R,-0.5508909001582872,-104.81593891453645
A,I,-22.52249318999259,-69.1105407739494
A,G,140.74636816685506,93.15642182753565
A,G,-21.72668687044717,-59.54179889224432
A,Q,23.297157915306613,-115.26213251529244
A,R,33.19525122544286,57.147997207361485
A,E,-35.833265316293826,-56.635940745592215
A,L,-41.24788741266582,-67.25394470269215
A,K,-47.93664646333907,-60.400475044281315
A,K,-48.55096073799076,-60.76072787757739
A,I,-38.19798432348219,-72.26761059481477
A,T,-37.60069518033754,-69.32201095051035
A,E,-29.92064076027772,-71.68376959601449
A,A,-42.09887137316955,-69.5397569913069
A,Y,-50.19166641546778,-58.34086405524155
A,W,-34.095669693445224,-62.73164700033976
A,S,3.390344997027928,-86.76458845418954
A,G,15.970378611335038,77.57998325946167
A,K,-20.3914254136481,-89.93694633925173
A,A,147.06033037368886,-125.32111092424125
A,T,163.33093477342618,-82.91425529337792
A,V,-32.688618314254036,-62.301683932503515
A,E,-41.585494532221865,-63.930740125615145
A,E,-36.921694992822786,-67.10630891224947
A,L,-51.35730485489135,-60.861077430217364
A,L,-33.486378340438876,-66.39813411346216
A,A,-38.84431878379773,-65.37023936414688
A,K,-34.84118020456064,-71.66889335670719
A,G,-42.035285903427344,-62.63639080269246
A,K,-44.91261720147797,-62.04601935822588
A,E,-48.92400382627863,-57.752058420387336
A,L,-47.731733659516074,-59.881285454890495
A,R,-43.68495553695158,-62.15633132078113
A,E,-44.33315298982043,-62.88670020244633
A,H,-45.98706605384162,-58.808597090918475
A,N,-36.14074235829974,-71.82419752817411
A,W,-45.494647577880784,-63.30006293411004
A,K,-33.602783687889946,-68.59694352846303
A,L,-47.036039227940215,-57.892057234693524
A,Q,-39.277330706620724,-70.64610726627761
A,Q,-43.846881336580324,-63.747370697280395
A,K,-38.81717620224185,-62.486495054730646
A,A,-20.631447585441872,-65.84949938154293
A,G,13.861939751827387,96.24456206990696
A,V,131.61706865392443,-65.23180977867902
A,D,-45.73995376748817,-79.49210347017141
A,I,105.57160595326512,-108.89396142449118
A,I,127.88850017712387,-113.94720652347995
A,P,151.7414626346901,-77.16687412843531
A,S,164.823268258202,-133.15506694574637
A,N,0.8108741730044791,71.55277975356739
A,D,-16.994585039227097,-77.74426600397072
A,F,152.0358932779979,-69.03378124330978
A,S,147.87311325992698,-158.4094099878542
A,Y,-10.75739842485569,-80.8092308565128
A,Y,-62.00435859406304,-153.73260714755705
A,D,131.3961664239927,-155.54336229702113
A,Q,-36.407508061486524,-58.57617274445336
A,V,-42.72001057637912,-68.30289838905838
A,L,-39.47352307742103,-58.292814251857585
A,D,-41.31450119425088,-56.21211024264737
A,L,-41.777283417595804,-65.75074704124506
A,S,-41.627055892711965,-60.51950548159963
A,L,-45.595836083304995,-65.23057000431126
A,L,-38.80364985436216,-59.432950368363066
A,F,4.494143800552656,-96.2895004236154
A,N,22.95785900997284,70.82218596707898
A,A,66.52974980568135,-78.60246881580764
A,I,111.75562825714431,-119.48715627099517
A,P,145.89816670976788,-60.15835183181311
A,E,-37.61152168438247,-53.02701353771371
A,R,-23.85573512620963,-62.3209048529322
A,Y,-13.235891620422084,-81.14908483437713
A,T,6.436517070993399,-95.14569290416544
A,K,15.809244518470043,-102.07923596898969
A,F,18.08347359360425,-122.16484351750705
A,D,30.524760452672187,55.272267234972844
A,L,134.5037793282715,-84.03435455697188
A,A,156.97947542830718,-58.72362135374029
A,P,-40.02365785044446,-51.944119220079024
A,I,-27.16691715513104,-67.78457433701936
A,D,-23.374278712962987,-85.54978537183437
A,V,-43.59791766197031,-67.7248899205124
A,L,-51.411949801316695,-55.54022864260806
A,F,-33.671128230444765,-66.9097722449085
A,A,-41.69516561115344,-62.90064095301763
A,M,-39.13815205951684,-66.7136644916695
A,G,-36.50915447665261,-76.98810198349376
A,R,11.389442300121836,-133.0588603397507
A,G,175.34768341532637,76.81848907183108
A,L,128.9330399880597,-146.98594315983016
A,Q,147.91024058757577,-112.69031166540314
A,A,155.44285499324005,-149.6072384026477
A,A,163.3894715491874,-61.401684848331655
A,A,127.79495149939784,-63.203481475379874
A,A,128.30466249540973,-138.11034629233396
A,V,133.43333648358777,-96.64179369458618
A,D,72.75405064345021,-138.85065971745442
A,V,118.31748740196494,-82.5500292968544
A,T,146.18400428120518,-79.48906868086365
A,A,156.1280598995146,-61.9843555050734
A,L,163.5729295669461,-62.93263785216908
A,E,138.98661859135007,-64.81888567667364
A,M,133.04283679851633,-94.94211923389318
A,V,137.72294504233278,-134.3829906111547
A,K,130.84525036559165,-61.262835231089
A,W,97.8956842924561,-78.62546902590101
A,F,-130.67637268746694,52.65234904078533
A,D,19.91718769510507,-109.0243810714649
A,S,176.10460604480892,-78.47245481209882
A,N,18.377004405102877,-98.6471102097881
A,Y,153.47821822025657,-93.54655453143613
A,H,135.6488370475032,-123.45262437242198
A,Y,165.16431013805172,-108.9709771554763
A,V,120.56122710409915,-91.26669447643256
A,R,122.1785900070599,-60.584594254953664
A,P,132.54800414069007,-62.38325863514282
A,T,125.6285533448979,-126.79711625067758
A,F,151.10555524271012,-125.87828980562611
A,S,167.521478982694,-122.37130721697835
A,H,-34.631558725852834,-54.78856288998108
A,S,-2.2335148027720044,-82.34987470615425
A,T,126.00271700043109,-59.32418524289808
A,E,95.29146818769541,-110.9999505472278
A,F,134.26698259937558,-68.75037049378686
A,K,160.52176556781686,-168.926064925257
A,L,135.12105487865753,-84.15717083574191
A,N,94.32981303772489,-105.89616134526541
A,T,-30.88996784332604,-68.89892834536064
A,A,-32.82196290162252,-65.5952690176521
A,A,6.765541619585232,-74.82615240959171
A,G,153.25770560961854,71.16234072659772
A,I,92.74367562515614,-106.57781506380913
A,K,-55.91096262072142,-42.40509093413503
A,P,-32.881108509226586,-61.38435200660213
A,V,-49.87517820027069,-73.02841982203005
A,D,-43.57692661207623,-57.62734162077036
A,E,-36.90507979633571,-71.16724832779096
A,F,-46.19311458192425,-60.0336761145224
A,N,-39.26291797030553,-66.55725721462271
A,E,-55.71267390750783,-53.66288445246328
A,A,-42.50730113584762,-60.47197379094112
A,K,-44.88444838840969,-57.47442173041297
A,A,-20.65591187869398,-62.245093973907885
A,L,1.76486172948697,-88.59554993139082
A,G,21.067230626723113,81.93309044840363
A,V,106.18304485469619,-117.81024205408066
A,Q,130.2157001698112,-72.04158418371145
A,T,166.61391981216948,-123.89674586175774
A,R,108.14713444838239,-110.79968765191691
A,P,140.0580324004226,-56.217098326610255
A,V,124.05746058731847,-111.63071064154637
A,I,140.44809397362897,-133.84744550896178
A,L,128.59960345271836,-61.34491820092056
A,G,163.3218210922141,-72.35260108710838
A,P,-35.52401072419204,-64.67319832555295
A,V,-53.39460221941484,-68.2680531786169
A,S,-42.5469595249485,-59.16118179004492
A,Y,-47.315069117648164,-57.82889989532932
A,L,-47.11783570400471,-70.58486317240492
A,Y,-29.033051732790586,-62.63335888899286
A,L,-2.890219308820464,-87.7377904869731
A,G,-173.2482475636789,-94.54774156821598
A,K,159.18640766465052,-148.72330163543708
A,A,134.84640707586553,-70.65409677639587
A,D,164.26771824281346,-72.79870093088762
A,K,-40.422612896984674,-49.46955740620605
A,D,-7.935136953110783,-77.47614334072034
A,S,51.39493394385923,-129.59717725314994
A,L,-22.677318972362876,-57.85969943507107
A,D,1.1760271564734228,-91.94826977657067
A,L,126.69728076139378,-81.61387662165892
A,E,119.31946825544006,-94.90217985630046
A,P,-46.36190855975203,-52.01896786670083
A,I,-28.064589911140253,-58.50233611660259
A,S,-17.976917266517724,-57.685131841600004
A,L,0.11482801905575463,-86.5078683026796
A,L,-48.838514564526506,-47.758757203011996
A,P,-29.887672029434224,-56.56095131187043
A,K,-31.77112876624914,-78.87007399775948
A,I,-23.538128192601036,-90.81450287648944
A,L,-46.99998624199025,-58.04131293855026
A,P,-32.71411170212683,-55.44259034482981
A,V,-40.07940251739148,-73.43279107692501
A,Y,-43.973565846827356,-62.00176826113541
A,K,-44.33173593482788,-57.207386110264245
A,E,-37.07140468502142,-66.45601434321355
A,L,-44.468754246069594,-67.3166634521474
A,L,-38.12933696010432,-63.2005368991027
A,Q,-44.71717851291462,-59.29546797314532
A,K,-38.83120983443899,-64.86936648228526
A,L,-39.430439028390936,-66.56457987983752
A,K,-52.11862527712937,-61.74464744406595
A,E,-32.38279185499839,-56.03882881994166
A,A,-14.816594929943303,-75.16035612269978
A,G,3.761386534421601,115.06923578111642
A,A,127.67921809128553,-72.57195664075235
A,E,-22.80064078045959,-101.0976767340171
A,Q,151.62455618658564,-137.44537455304456
A,V,134.56504295700805,-133.1265684836323
A,Q,111.88137220227759,-86.31955517240166
A,I,108.49243189644494,-111.5571716759873
A,D,123.93470615748191,-78.45688329539371
A,E,62.164712936789556,-126.92139102709687
A,P,-17.595513959959995,-67.3550245795104
A,V,-14.648075028594642,-60.12114214424857
A,L,-15.327465339152537,-64.4694084953475
A,V,-3.3218011725163974,-88.75456797903995
A,L,163.5333252616802,-91.37536914041867
A,D,111.48578662805835,-70.50986937790053
A,L,137.12620369978592,-109.32924719929207
A,P,151.6082560447702,-59.80965177027344
A,E,-36.12205116968154,-55.02431641721897
A,A,-26.743361528531448,-67.08350057279888
A,V,-37.446310902039656,-83.46708510755445
A,Q,-34.572253999814194,-54.45782285460558
A,S,-17.046347865168404,-69.49422038679324
A,K,-16.129698756077104,-76.42248237964233
A,F,-46.82093910932886,-67.48876434342101
A,K,-47.467563273399875,-57.27264249834468
A,E,-50.99939153493293,-57.05612003148519
A,A,-47.01715245191019,-63.62907366655116
A,Y,-29.299195823402886,-79.32200980886257
A,D,-38.216927156700656,-59.382425440071664
A,A,-33.93686130160015,-72.95407591925992
A,L,-44.26632890522253,-82.99024516916221
A,V,135.70849820266125,-69.5977120522342
A,G,-173.39092924683698,-176.7864913843408
A,A,-20.394304269135986,-74.11427496581521
A,D,7.059128363155902,-97.8046004978644
A,V,163.85553960904048,-130.05645715572405
A,P,161.25918687279497,-71.8376475889801
A,E,143.68620361659768,-62.58946309029917
A,L,131.54158361456635,-110.24196013110225
A,I,106.29286097941248,-111.19680130824143
A,L,119.9689967314378,-81.33036281416244
A,T,129.06679745650032,-117.64331573801137
A,T,151.6310342189558,-128.0952197450531
A,Y,165.17487711566,-160.0462153686038
A,F,-5.159125689015357,80.49519069645167
A,G,-163.40512231289645,-173.35875456557986
A,D,122.56634718766068,-102.79744517263647
A,V,-4.522791401557893,-93.5580405660097
A,R,-43.04421078050428,-53.8925802581447
A,P,-28.572015988279173,-56.99362455499951
A,N,15.325774132860653,-101.67525713491617
A,L,-39.30048637827999,-59.820707605182704
A,K,-27.270218068963274,-61.50408873043973
A,A,-26.422159266535036,-64.57337766359264
A,I,9.036885957055121,-118.98810824868099
A,E,-12.787400283141874,-74.91573206576614
A,N,45.59560176173082,-131.5424069943633
A,L,147.19647886929886,-96.63215871071813
A,P,10.429617901018485,-85.02227871658859
A,V,164.94375976946912,-67.6158805547432
A,A,-12.411748757712925,-84.46991360009008
A,G,174.83405651302363,172.3130276205148
A,F,156.31953134403648,-132.37403277714043
A,H,133.68982951279438,-126.67008452029441
A,F,151.31797090561096,-126.76522703497909
A,D,100.53920304918879,-90.95193361133157
A,F,7.425977125779828,-95.87826567742768
A,V,-52.4840659482803,-82.72030171166446
A,R,-39.95748019967641,-71.29693129557907
A,V,66.46584165688469,-138.63845431525
A,P,-23.88775307646786,-60.15731857712712
A,E,-11.296947239903371,-73.44655427594768
A,Q,-6.470723562376437,-82.33438787194116
A,L,-56.84087828149751,-50.21392238321467
A,D,-50.688528379926005,-53.60426536843868
A,E,-45.00640582858328,-67.1502356659477
A,V,-35.329038662094696,-67.73705711878492
A,A,-37.96921789375904,-62.77162928507397
A,S,-22.58397908367293,-60.5652447494971
A,I,-7.091150875919014,-95.55699184813568
A,L,125.68494616593443,-56.78826005115675
A,K,165.4148492787232,-76.3298445329452
A,D,126.07696774172017,-48.326698001401724
A,G,-33.385499982935634,86.27244505965696
A,Q,141.80923867545033,-58.343930703429315
A,T,160.3419951362171,-103.62813516508899
A,L,115.51876002731163,-122.65570759608958
A,S,114.23787535938277,-91.34407397228703
A,A,103.91225489846936,-93.34460611112486
A,G,100.18016445502022,-75.40641320547353
A,V,-3.4171232533474805,-125.77211468595308
A,V,114.00236838794086,-109.4481486081821
A,D,124.45818818668418,-54.0315876907407
A,G,0.14314582494137287,-92.33700430524885
A,R,0.2720958807377877,-120.04011676424382
A,N,169.41176307048468,-142.94799380463795
A,I,14.522094397613657,-113.70492291721297
A,W,140.13709870789822,-81.69314682752474
A,K,133.7430352700183,-57.4375560035246
A,T,139.56926162663902,-71.86369278851734
A,D,104.46144847045474,-78.34484928067897
A,F,-39.49902312563203,-59.9971310512095
A,A,-48.260508896275844,-61.9536371851832
A,K,-43.38291456889333,-69.88370756728128
A,A,-43.70336961435913,-62.40527889859612
A,S,-38.44581382264163,-58.778082218442066
A,A,-36.806446645907336,-64.23721310864248
A,V,-46.727564338272316,-65.49093260611825
A,V,-40.4685290023693,-60.65241442607499
A,Q,-36.357014469775415,-62.8314722002304
A,K,-37.65798871064891,-61.60000625451033
A,A,-44.35529388273632,-67.92509426129057
A,I,-46.54413065104084,-54.66647255248327
A,E,-36.29777435142092,-57.263332052196084
A,K,-47.41397681919477,-76.57204325059244
A,V,-2.5022512685891063,-120.55482158118859
A,G,136.59730064446762,98.93285351017796
A,K,-33.379924581452244,-57.35141101033833
A,D,-14.902596851349799,-67.86853860938977
A,K,11.836146473746751,-115.35360460342946
A,V,142.96807304746196,-119.05510097062559
A,V,137.04271952801327,-124.51694656835069
A,V,123.00509932056761,-89.51908212154349
A,A,157.6464170993145,-134.1281287857467
A,T,148.37309444930005,-63.58076112725691
A,S,-36.482226370760124,-66.83199471691131
A,S,-175.87942390997486,-143.0471194482751
A,S,148.60058175200078,-55.630750354648505
A,L,2.6062780889291526,-79.66420247829971
A,L,-34.48093330691615,-42.92481844075029
A,H,14.554431426049765,-92.9650980124306
A,T,155.98633627875276,-128.7146448618252
A,P,163.69095785594797,-67.49438289388863
A,V,-50.68995117117209,-69.79706849538512
A,D,118.41030704973899,-154.20894024479472
A,L,-26.276495938203784,-64.51088001061925
A,E,-15.608711745953785,-68.32829913061661
A,S,-15.43564952690723,-77.77754012818183
A,E,120.74175822870595,-68.52425257001524
A,T,-9.567792836769515,-101.82426351511577
A,K,-27.437460708340033,-118.02244638372466
A,L,132.44731275816596,-58.919061726685804
A,D,144.4252892542372,-55.290749963341746
A,A,-28.195711822270425,-59.19222432535013
A,V,-44.08460008258249,-66.18925659162583
A,I,-44.565460573386126,-73.17267031164401
A,K,-34.970498788525795,-55.38501696305538
A,D,-17.317927614088696,-60.702872486924775
A,W,-8.212421821509112,-87.30952067045207
A,F,156.74397261519738,-114.25636004802354
A,S,127.160315279613,-142.80893371103053
A,F,-167.88051330772592,-99.26752596912132
A,A,-47.792734150684595,-55.81416664446116
A,T,-42.79712533264959,-57.27776686842761
A,Q,-34.01455728665346,-69.83774224790689
A,K,-24.934663327652444,-63.92862850307976
A,L,-45.380953069727106,-60.301273970345555
A,D,-34.55313179574894,-65.01886518019364
A,E,-49.539688620523116,-63.99127006376004
A,V,-33.33278532609922,-63.23231926586999
A,V,-44.473967337477205,-67.10007317916302
A,V,-42.08921263965161,-68.132516788108
A,I,-44.311164059621255,-60.05357549992192
A,A,-42.91362336077343,-60.7777145603817
A,K,-41.54162719617586,-64.77027592096046
A,N,-51.24485197520526,-57.894296809757186
A,V,-16.899529248344184,-72.29449279153903
A,S,-13.550383239581516,-78.44967721025863
A,G,-0.26425655484962157,98.65325447528093
A,E,145.36907474425735,-71.25068992876076
A,D,105.48697009974039,-77.3406607378199
A,V,38.61862971193198,-123.97573746053479
A,S,-32.16897836044874,-60.277141940327766
A,K,-48.1666144238408,-66.53775537895245
A,Q,-38.58364732400656,-64.71712986069106
A,L,-39.02546658908835,-68.16335882554996
A,E,-45.72772909253285,-65.78030851080393
A,A,-44.39588624789483,-61.381061366763355
A,N,-43.231386826465695,-61.67825509029109
A,A,-40.87758966634422,-62.28155648831626
A,A,-44.343638213198524,-59.36680272311295
A,S,-42.63396246688291,-65.8518848777236
A,I,-42.043860520863184,-63.31020439223042
A,K,-45.27536837019065,-63.71123188280309
A,A,-47.92668633011698,-55.93210662241
A,R,-42.545133894938374,-62.72034773384759
A,S,-35.56570532596552,-62.55803472177326
A,E,9.533163978024676,-93.45375547007605
A,S,175.78515513216658,-68.55073653312569
A,S,-29.52770027185174,-120.74226094384773
A,I,-17.079127540559877,-53.35557572617746
A,T,-42.804529221583145,-86.03401918502743
A,N,111.74103258846212,-108.76460249996121
A,D,109.9629648739584,-107.76164771603815
A,P,-38.058234039120094,-56.97664378333452
A,K,-39.30827783191741,-62.009139728848204
A,V,-45.04540421946415,-69.1262810813992
A,Q,-43.52317021273114,-57.596158591736035
A,E,-39.0352113372548,-62.789044956914935
A,R,-32.3499723248606,-68.92031010962407
A,L,-34.285331936529914,-60.29877141992833
A,T,-21.770762381992213,-68.93361370114448
A,T,-9.560476041279667,-78.78764190498218
A,I,127.35805505532062,-67.38740327157846
A,N,-175.80893862844755,-153.8944647345319
A,E,-41.74120435180969,-59.149324323923246
A,A,-34.096711999739355,-67.18730619408412
A,L,-24.259743425566853,-66.30861302221939
A,A,22.772527711263965,-106.79807637620229
A,T,134.8736624914199,-138.5711605088349
A,R,160.1494890440641,-59.47834117628484
A,K,-22.098353351841922,-68.07849385953354
A,A,161.99199837420446,-150.21262680043958
A,A,155.8237472554622,-72.91559672741275
A,F,-43.446514640950944,-48.53585359224839
A,P,-46.08920256366473,-50.6871080725578
A,E,-36.36433722647432,-72.65107273792627
A,R,-44.292225326700866,-64.92570672357924
A,L,-42.10692069716869,-53.562791418500794
A,T,-46.82568486461815,-56.92009545259159
A,E,-34.43638963964088,-70.14725116573469
A,Q,-40.426688528642046,-68.51534398421082
A,K,-39.34129150286278,-61.5646071996311
A,A,-35.57126797799262,-66.62603520749192
A,K,-44.73041829879225,-80.57299356555671
A,Y,-29.948477548148844,-100.9924395363272
A,N,44.646000711673565,46.066061991074704
A,L,145.21980922889426,-64.4478775835042
A,P,170.71365602155606,-71.802980384617
A,L,157.01380572949327,-64.23993589414921
A,F,53.47538663564765,49.56315995168464
A,P,142.41915785935296,-61.357513764263345
A,T,140.54179480389828,-109.11259468124982
A,T,176.40600748014086,-154.2251241542478
A,T,172.67768679931487,-121.31074390599377
A,I,-11.120992465624614,-114.20286743115432
A,G,-133.49311893411124,-159.91091425402865
A,S,175.94881701513143,-92.27972861280311
A,F,164.24929280372479,-131.76262237888136
A,P,115.93564667483486,-57.02139244908847
A,Q,142.96625956923378,-90.94136837792425
A,T,163.78581423623388,-70.09439758203948
A,K,-26.395824483145535,-73.96393176955252
A,D,-36.752478570077436,-55.19413905600966
A,I,-46.153888819231966,-61.18614851854921
A,R,-45.19966387668269,-66.70397323472858
A,I,-48.05928032203759,-60.26591180426323
A,N,-37.482645567025784,-65.94635383772892
A,R,-44.584970220291595,-59.544848405942545
A,N,-44.81662376172609,-63.47533225590362
A,K,-41.81939873690118,-63.285979064528505
A,F,-41.2823599845585,-62.79521181728016
A,A,-20.842873166832543,-62.33403132742182
A,K,9.15821829342784,-105.79449967007557
A,G,1.1233678059552366,71.299034673578
A,Q,-29.850628536432826,-60.76017987101658
A,I,154.35482126884952,-119.75531917869282
A,T,157.66742873903746,-83.24937922061375
A,A,-41.44904381483557,-46.93181177034671
A,E,-34.4758015461271,-67.14258036973938
A,E,-48.69694787131669,-69.25280870038787
A,Y,-47.135003611165835,-61.70229559192214
A,E,-36.46568157245194,-57.81615218341611
A,A,-33.042900824165756,-71.09602746543061
A,F,-40.708579737498226,-71.57938592888311
A,I,-52.76369284629962,-58.42311037711156
A,N,-35.092875184293284,-58.550044584211285
A,K,-43.463084625660755,-62.58934397394672
A,E,-41.201454358924295,-62.79337600416309
A,I,-46.56648919133244,-64.54606699457109
A,E,-47.08653715398921,-55.914392989298214
A,T,-53.712000056816755,-56.096536465128935
A,V,-45.44876682210331,-57.09584140748742
A,V,-49.906691766152754,-63.36593411460215
A,R,-44.2193525720622,-57.576257471931115
A,F,-49.31520531326738,-52.92378563443096
A,Q,-36.93623922176588,-64.74164365346161
A,E,-41.27333899969635,-63.154591945375465
A,E,-41.00692788026412,-62.780888748695716
A,I,-23.223536375229124,-69.04478950780019
A,G,23.2814781483012,86.77026356978776
A,L,151.54586064669715,-61.40177946052822
A,D,-37.59752683262852,-92.26851221710731
A,V,124.20884582713155,-125.93948708792665
A,L,170.21627562766707,-104.39828543448208
A,V,166.82357226703127,-133.04208979708804
A,H,-10.543487318380429,-100.84835026204014
A,G,-13.435740774065279,94.95257950073646
A,E,38.98579654894002,55.550065171408505
A,P,-22.350590499005502,-63.77223009689442
A,E,-5.060230051531868,-78.88529121287475
A,R,140.5885644372663,-111.15453266145127
A,N,-17.843892623906708,-104.53966796806151
A,D,148.2153102386276,-162.2204006098835
A,M,3.178529465278508,-90.59665345506208
A,V,-52.642798707543385,-117.05560178268355
A,Q,-30.858319689713692,-63.06771364083781
A,Y,-36.613759969139146,-57.20676523245257
A,F,-45.33143814864861,-86.50709609617793
A,G,-39.14149691854004,-53.354010573111694
A,E,-23.94721067123681,-63.38694801920011
A,Q,16.32990238622477,-106.3930116420302
A,L,138.33899187747963,-121.61926634801196
A,N,153.48839559021815,-68.18251610488116
A,G,2.104497962322679,95.17789723862899
A,F,149.34385807424107,-112.84534813010845
A,A,153.47109256332226,-125.87216825089249
A,F,151.81473721471974,-123.87777117816347
A,T,162.94198898680293,-105.83838198663022
A,T,-30.088200517907104,-92.72208708355055
A,N,19.632771497870664,-133.3373559346464
A,G,53.451614580341214,-80.43596479602655
A,W,137.65207497136612,-77.37957623343179
A,V,137.32535505142505,-130.74887336223455
A,Q,128.8648739123321,-66.12252091849145
A,S,-48.372391241836276,-102.88213518973376
A,Y,129.74813490419575,-167.32341385107588
A,G,-127.53690462751904,52.003007481924904
A,S,6.710576728750207,-90.87630861135315
A,R,117.52477398785416,-88.24751869028402
A,Y,157.1955137436544,-111.91789471671198
A,V,153.79514750193673,-121.41003342836947
A,R,81.75503372014904,-120.55922173251223
A,P,143.32119291900852,-63.52612633629632
A,P,157.4138592189593,-61.70389971022529
A,I,123.8871074978984,-116.32474567025635
A,I,116.61101587171187,-78.75076580362935
A,V,-14.906481721792156,-107.9587704584152
A,G,-176.13107097111566,-166.74980128883334
A,D,129.85538018015512,-56.96286219032509
A,V,134.47441542434342,-94.24985253827623
A,S,166.5847058269311,-147.9466515711665
A,R,103.74126093535331,-118.61227884755442
A,P,-50.708999445215,-56.06070466813581
A,K,176.6250572851531,-147.70237578740785
A,A,135.16983468869338,-52.682880344978074
A,M,-29.08779781693128,-104.45666346403871
A,T,-1.9658507559195724,-136.7175536654557
A,V,-47.78313361189358,-61.87065730923133
A,K,-54.598350122728164,-49.778341160966654
A,E,-40.528360011467626,-66.44438041921347
A,S,-38.65934383914641,-63.70442807052243
A,V,-46.72300135368165,-64.76190035258014
A,Y,-43.91854214796479,-56.67898765143227
A,A,-41.88559575820931,-62.58781572935989
A,Q,-27.241075343337595,-70.54743737429234
A,S,-18.107556571225967,-70.77748364398263
A,I,11.242170366928958,-104.91566306725962
A,T,151.52161068117562,-148.6785719279062
A,S,-9.863390645125783,-89.16908389155677
A,K,148.27845826168203,-74.99873759927186
A,P,132.49354299953802,-61.96172372635323
A,M,131.6016961962813,-104.08026686631987
A,K,124.66458699647124,-80.8458662455182
A,G,158.70150394067844,-71.456395586442
A,M,120.46679680550574,-138.03728746901214
A,L,156.3862379120873,-135.58060820397537
A,T,141.21135903742635,-98.98158477432176
A,G,167.39991918866286,-79.22866856317268
A,P,-36.957831228604356,-64.36081752205672
A,V,-33.74380166901554,-72.0031877221195
A,T,-40.385483279438496,-70.64991058959309
A,I,-43.58188920250689,-60.55364847857631
A,L,-50.75597964984073,-60.58429090548906
A,R,-26.55282889263888,-68.20115064707066
A,W,13.077172282754352,-100.7378943660722
A,S,167.92211579736394,-115.8264901790641
A,F,119.70035258737416,-82.68954059787134
A,P,162.52785931994885,-82.5808316167394
A,R,148.92041279396892,-61.40035725554709
A,D,-0.843713075493171,-103.94196149522193
A,D,-8.588769435340703,-100.34456641328408
A,V,155.85389096978355,-138.6898000035409
A,S,157.78768225888297,-68.84378776843536
A,G,-43.21946613667207,-54.74018854281002
A,K,-51.42933927066111,-54.94827227092318
A,I,-38.67388510381379,-60.91595885808945
A,Q,-41.75859098026216,-65.23368139505973
A,A,-41.99569445342022,-62.36856441666961
A,L,-37.860470930142405,-67.56729991127904
A,Q,-42.25426904410689,-61.037462527938146
A,L,-43.8953575182557,-65.08771403020219
A,G,-41.970634099871816,-55.33253310436377
A,L,-40.620718920564784,-68.71991571173773
A,A,-43.25794542476593,-61.50755548523062
A,L,-26.992003220115436,-72.91239762106451
A,R,-41.518170780055634,-59.37492857232761
A,D,-38.8781290324457,-59.09574478385778
A,E,-47.39720372267698,-69.72346989635003
A,V,-45.356512568109366,-56.16376366964499
A,N,-41.742039530577046,-62.70002086596727
A,D,-42.442288851561,-64.73846307148378
A,L,-46.28643314533168,-57.925509289860386
A,E,-46.569880122841894,-62.89650807815573
A,G,-23.09529099062774,-62.23029181622995
A,A,0.42055212425649685,-92.79411624646819
A,G,2.2779537976971245,98.3538308462211
A,I,94.49755068776105,-90.8697551936081
A,T,8.609361607545528,-109.38957210628048
A,V,119.75817080572799,-119.583698870153
A,I,122.27176105537401,-136.41905598895272
A,Q,127.70543958121301,-99.9078760386319
A,V,112.3044923821304,-126.13783593494487
A,D,142.22759014969105,-104.33767795093051
A,E,63.6621497540323,-127.75729540002528
A,P,-16.606117919599598,-63.60942021970092
A,A,6.586002062506064,-93.60355533059266
A,I,-53.36455572046143,-61.006401635656246
A,R,-34.6719336137148,-58.609527289926035
A,E,-25.775897501785124,-68.53816960798211
A,G,-0.9202150648509339,-95.16591891122192
A,L,121.34220173818319,-52.69542565630195
A,P,144.34167196431292,-51.07285079837673
A,L,-21.071642043783818,-68.27899740914027
A,R,148.62887976113913,-122.3697193485196
A,A,150.5199036342692,-64.58893432435417
A,G,-161.3984008535156,138.87424654548684
A,K,-49.77676489634033,-61.288078839346774
A,E,-45.02454842001616,-55.99887447188143
A,R,-51.867002031268406,-63.90596713160949
A,S,-35.629786970528606,-64.1311976723857
A,D,-45.11365901738474,-62.76950654795435
A,Y,-49.11711516938856,-56.10065852236825
A,L,-38.26302220004695,-60.055535272457604
A,N,-51.60920780601426,-65.68197935557882
A,W,-25.283550578623398,-73.68521086732967
A,A,-46.14831430833578,-66.03921789076367
A,A,-40.166097264919074,-68.76729311131974
A,Q,-46.47410544910376,-55.77022016791934
A,S,-37.056628136616446,-63.52942316170916
A,F,-45.798479444811896,-64.82007154325049
A,R,-35.691783487171044,-65.71668042701862
A,V,-41.82946932301814,-58.5968164954822
A,A,-31.840107480309513,-66.86248519449958
A,T,5.01448747785741,-110.66371411978615
A,S,5.865462554541832,-103.20183312259256
A,G,-9.211889502861302,-79.12220655484983
A,V,161.71531244408018,-85.3438617518329
A,E,161.38513886296658,-70.8189880093109
A,N,-32.965810058784,-58.78492148360783
A,S,-16.23812929816999,-76.58227011793213
A,T,134.06684430921064,-78.31971868102345
A,Q,118.446692536053,-106.94490149791484
A,I,122.0781066810019,-98.35315390016365
A,H,159.59185816973346,-110.79109031975013
A,S,140.31025223687118,-153.76694207651275
A,H,144.50838118324012,-111.95669493885231
A,F,128.84565860130476,-132.99110807514563
A,C,56.07838671764895,-118.02732594767603
A,L,146.99196938474046,153.25569866555628
A,D,107.34978190889558,-98.39958132137616
A,P,-37.2519316888133,-45.254379674278134
A,N,-39.37454814738516,-62.21867993925839
A,H,-37.01395928004253,-75.60224245834434
A,I,-50.19845399523167,-57.24811988099116
A,K,-34.29087594565838,-57.50225927217916
A,A,-21.699422543469087,-62.59469545268875
A,L,-24.372012378706227,-77.56872963673925
A,D,33.66575765371893,57.988658072472965
A,A,146.08247078819915,-64.86629014481063
A,D,-37.55683131170334,-67.7641373412017
A,V,131.78664409838058,-139.45596957918704
A,V,120.34282276785102,-126.23727015950941
A,S,129.2429436053976,-88.16489671878843
A,I,165.9892852196607,-132.1617509538207
A,E,13.439812983731542,-106.46271493257514
A,I,-20.574307330534335,-178.59116638681593
A,Q,-46.58750916876025,-55.50282762756977
A,E,-22.468364730711656,-67.31666141406767
A,F,0.21474215970329993,-83.98235958846092
A,S,-42.69669569644143,-67.10134108471163
A,E,51.61437694155894,-93.79279696814079
A,Y,114.63601948352101,-143.3741614546605
A,P,-55.22071616780602,-62.719745071232495
A,N,153.41127499717254,-49.50379429158202
A,H,155.57262839999188,-90.13611490053268
A,I,139.20650880326411,-125.92561376851978
A,G,114.03023236578892,-104.37351360605338
A,L,132.42906263927432,-89.51493931459262
A,G,-178.47726537615577,-98.82064703716499
A,R,-31.50299825220928,-62.61381511872209
A,I,110.41384573193206,-62.4589790026298
A,P,141.85431638525432,-68.43077281550937
A,S,163.94336139797596,-105.9866420052068
A,K,-39.93866311601788,-56.271069655322485
A,Q,-39.030321670393846,-72.44093020442345
A,E,-31.006215974220304,-60.097731794500305
A,F,-39.98432236986586,-78.36308303380001
A,V,-30.134328363622572,-61.53727527029458
A,S,-45.52992539881477,-72.15236871806837
A,R,-52.609794293499945,-55.62797302897942
A,I,-42.761307613900875,-61.39107932509139
A,E,-40.69091764913411,-56.06704824684101
A,E,-47.80000967274939,-66.63759954577402
A,I,-22.991138695710642,-66.86153167994802
A,L,-20.039387284664556,-67.22657958543739
A,K,-25.864135040909428,-71.45977466269748
A,V,-76.30481666910812,-100.03964369296037
A,Y,146.21945994142325,-80.13999600985983
A,P,144.08863723306712,-68.61971776553929
A,A,-28.211779413986946,-58.05408748504629
A,S,-11.297556763832798,-68.62522021402562
A,K,-0.2571095146474361,-109.34313714800432
A,F,116.02266161442334,-99.0546859878487
A,W,153.96181963168848,-94.14346632225569
A,V,124.04317614756087,-116.56579057251058
A,N,166.22850518505393,-153.36089324486264
A,P,177.3223734722038,-68.68442432866478
A,D,-54.05419149873943,-65.91108420551774
A,C,-166.43079884359062,-147.51511087585183
A,G,154.86333146490438,-66.98400429812769
A,R,168.10068063884208,97.81837827585214
A,G,167.5715440118522,-98.97228397546124
A,W,-42.47215907827633,-58.79625187856799
A,P,-41.81269215298157,-63.52993272470714
A,E,-35.08045741789419,-75.03695234898889
A,V,-28.48189899961708,-65.42576575516158
A,K,-62.30759747279872,-74.26820387771119
A,E,-41.49325191245048,-56.70792834959027
A,S,-58.84336662776582,-58.89860006215455
A,L,-39.6089699946299,-57.79978776208298
A,T,-35.135664705077566,-66.43138807222168
A,N,-39.95137073365931,-69.72441294644156
A,M,-48.16137390105903,-61.755723607923855
A,V,-43.51508996443349,-69.93594235765481
A,E,-40.71865254116343,-57.53296222743436
A,A,-50.54532249611282,-62.27963587698724
A,A,-42.27237486541907,-56.8531475468639
A,K,-30.540940551832946,-60.390487687618695
A,E,-29.511382587188603,-69.76713032805196
A,F,-17.805383766339745,-80.31498007767308
A,R,-30.534700826553664,-77.64573330542076
A,A,-34.38138738967481,-63.64962230846985
A,K,20.694959924995636,-76.33346414045927
