Chain,AA,PSI,PHI
A,E,159.1883644539614,-162.66935928218888
A,L,143.46144939278824,-130.533592233594
A,R,142.13272886748211,-135.51343319577504
A,L,126.31624412321014,-118.37767247464463
A,K,136.22987621049552,-76.34345280654321
A,S,136.7701717827458,-66.4589592155245
A,P,-6.969279423832218,-67.70965378102113
A,V,24.436367293431292,-127.86849222300344
A,G,10.046461319257439,83.67702999558276
A,A,166.89956971444877,-74.3951173413582
A,E,132.31006399206066,-53.27034044993657
A,P,160.346759516025,-57.28883861435375
A,A,130.99493881662954,-92.58156045226626
A,V,121.15798822775983,-120.5652563449681
A,Y,131.07494770441932,-114.15471565156814
A,P,157.86761156459022,-65.42234704456187
A,W,129.48241039622695,-127.07340642816298
A,P,146.80905310198287,-70.38614194861289
A,L,132.44622013126204,-70.68168279163874
A,P,152.37983486336768,-63.26476649964896
A,V,136.2417196058928,-104.37967356216717
A,Y,-49.07986742763609,-92.21152656307228
A,D,-175.03935883604467,-158.841778886893
A,K,-19.521113322631344,-56.75158532356298
A,H,3.0533203906023396,-126.57080347873196
A,H,134.9871377553427,-142.26503648298018
A,D,170.16092340372552,-141.57231200228165
A,A,-35.144943666080955,-68.75707223791248
A,A,-52.503605032308926,-45.74799467963255
A,H,-32.106909010526785,-77.26684237316822
A,E,-48.73699841569647,-50.59306668649723
A,I,-52.37823020023321,-58.988627852629904
A,I,-43.867978047528055,-58.506277161899355
A,E,-47.851756595552985,-66.73174568991699
A,T,-48.506500809368184,-49.422168515883335
A,I,-42.735428910722376,-55.494760381962735
A,R,-36.36161412825111,-70.7064440090432
A,W,-41.16980762396926,-67.63347869211248
A,V,-37.633121198848976,-61.02096826811532
A,C,-30.249655924477757,-59.384707386861066
A,E,-32.958263872681535,-73.60097539944067
A,E,-41.15826122631515,-65.02766615526738
A,I,92.18631493482972,-122.39794987573966
A,P,-39.39803719600752,-47.70035587416045
A,D,-39.595066839844755,-60.80247894163503
A,L,-34.19975590809541,-63.24821435893123
A,K,-49.22637930655635,-60.22008760259403
A,L,-54.919340747161066,-55.476532358366356
A,A,-29.400806358705033,-60.95202804712413
A,M,-8.287463801120053,-94.02795534615257
A,E,-21.76179923759526,-22.514822454214563
A,N,116.30700065623249,-103.35060480098643
A,Y,171.5271379957724,-164.08864449706027
A,D,156.1505771115934,-50.605030808465
A,Y,153.6370107180459,-134.49826280972871
A,D,93.86746071940591,-83.35606081394292
A,T,-10.786218821203287,-69.12932018765213
A,K,-26.575729187553595,-91.64118698214007
A,S,116.23211890571574,-82.3795399226179
A,F,-47.27576074640487,-53.68603761813343
A,E,-22.432594951901844,-77.94192676814602
A,S,-32.69659823001448,-73.53470038106664
A,M,-48.57618996772595,-74.94577555935267
A,Q,-36.84542704080521,-59.20473722750108
A,R,-51.908526842849426,-55.80577309490751
A,L,-46.657840125651866,-58.07239823786178
A,C,-50.48787011333993,-59.39517980447793
A,D,-46.1788001789146,-61.56151366869688
A,K,-36.736208386675074,-59.173542592305154
A,Y,-52.63545368409969,-68.05845575193644
A,N,-41.40909434807041,-54.758453053190784
A,R,-33.99045430681014,-70.88242355858382
A,A,-30.98995892759612,-68.32744386215022
A,I,-45.54869113270267,-64.82728735719452
A,D,-56.455421491644394,-56.282352040113615
A,S,-41.23582620363289,-43.9457434506031
A,I,-47.40605570822443,-73.26065764970785
A,H,-36.055965349188334,-56.37660470304244
A,Q,-45.63730656636433,-60.1759535723817
A,L,-25.441526683627366,-59.53974973568255
A,W,-12.770824243397028,-84.38190933526081
A,K,-26.41076212648885,-77.11331801041234
A,G,-162.42828187750828,-77.13647009353711
A,T,-31.44665811788896,-62.187519711090104
A,T,144.93398082752466,-52.6045088903284
A,Q,138.00321815892872,-91.52901472529625
A,P,157.66820657418396,-58.736292166361764
A,M,132.2360335014096,-50.167704687997784
A,K,108.71319099676862,-50.023112853136716
A,L,-93.85668110680632,-67.26353111201597
A,N,52.98461324753602,-76.35496974313504
A,T,-174.87292915123564,-82.11891425372896
A,R,150.43442737563632,-110.62420202941517
A,P,141.18349057010485,-76.61468676015122
A,S,165.10689294876124,-54.801397911597256
A,T,-51.444071594279244,-66.4581515044201
A,G,-50.564637849932716,-44.774813026210865
A,L,-46.35123617911424,-65.98193774977135
A,L,-45.4359897876594,-52.50664772390917
A,R,-44.49263224753452,-59.333749689866764
A,H,-51.16258155580429,-60.71247644318036
A,I,-49.89480073247189,-51.994365072415725
A,L,-32.222769835162126,-67.29011431129761
A,Q,-46.043421924389,-60.336484388680056
A,Q,-57.47812042685402,-60.864018282082924
A,V,-50.12815376095504,-49.33814572590998
A,Y,-57.620238183080566,-55.63689726632187
A,N,-30.109245412124185,-57.451463796467685
A,H,-10.227223313240987,-83.35058257385627
A,S,-35.921668408223326,-112.34779243081525
A,V,81.46043383342563,-108.45508489568076
A,T,-31.54859296398068,-78.10402188414123
A,D,84.54311380145606,-112.58548223147224
A,P,9.988433658413982,-75.94474785113167
A,E,-29.0529853436361,-86.61822181949658
A,K,3.992443671372743,-72.2032052045853
A,L,36.90838123844499,-99.38826298004986
A,N,176.44854824463945,-127.28439566388761
A,S,-34.91562431171793,-62.396469504840596
A,P,170.13767854944558,-105.52300702707367
A,E,99.7369550438985,-87.90682316211303
A,V,-14.074973682334843,-122.6034412993876
A,Y,-11.927185378684877,-104.6064538353599
A,G,73.38330368428365,66.31699290037871
A,E,-48.62032928461377,-75.40126902078597
A,T,36.11594781280418,-108.13721998682666
A,S,13.435141122038587,-82.50405722788506
A,F,-58.30506952144987,-55.72255781353325
A,D,-42.68862415655127,-56.640603311664044
A,L,-57.52975467071475,-56.21780192504006
A,V,-34.76789263164685,-54.60304063335242
A,A,-51.54023839180334,-65.49223534631034
A,Q,-49.92575823216124,-50.155930472612866
A,M,-46.18017581530511,-54.99527623368213
A,I,-29.38639970406839,-58.68238924367221
A,D,-34.78855019061817,-75.6081772745359
A,E,-44.12849653650862,-84.45113230440512
A,I,79.85788568323612,-92.38425499819883
A,K,144.70648010176876,-45.94883796147721
A,M,146.89351185280822,-138.81378569857597
A,T,173.54144611358092,-134.75140482664509
A,D,-7.665854894200752,-63.3875703720875
A,D,-20.93825544867244,-77.06267469895444
A,D,158.7398118650209,-84.99874361423777
A,L,139.3193009679498,-119.52418718887081
A,F,140.93761475945743,-115.46457438000066
A,V,133.57672557462186,-137.94091788875534
A,D,122.40390626420918,-100.43645497806052
A,L,105.82730652084277,-95.06468253743768
A,G,70.20572245817843,86.15060964310821
A,S,-4.675099297501633,-83.74510570222955
A,G,-133.3067325764372,63.70906008431755
A,V,-12.041279772832638,-80.24592601982727
A,G,3.598743593741181,115.80129920320807
A,Q,-34.3757865801771,-67.66819752382068
A,V,-38.53158918264934,-71.81227825068822
A,V,-51.09437599662406,-56.39403734821334
A,L,-46.25406789804497,-59.70357319652845
A,Q,-45.369120674264586,-53.89821625704661
A,V,-47.18712687104525,-73.7638088773686
A,A,-42.719150307761886,-54.745921966800346
A,A,-42.99430833877002,-61.0741547721335
A,A,-34.43978730995826,-79.59473305621464
A,T,178.84447222808035,-113.62143469934351
A,N,24.461677009606337,-121.7034634673914
A,C,151.40712583235393,-45.04780229869299
A,K,-17.505163312502923,-71.66240383155453
A,H,148.7174984329682,-166.77839324327863
A,H,124.92166730841467,-126.0539553779437
A,Y,144.34705450565224,-118.5800332365274
A,G,143.02849794754536,-125.01534367016673
A,V,129.49527116260623,-132.41758784338626
A,E,144.8455923819633,-136.77026532766925
A,K,-45.1094924039628,-101.80008986848068
A,A,138.49820424626546,-72.67113127438407
A,D,-43.213705027030656,-66.26616098347677
A,I,-57.75505796104199,-59.13046770791367
A,P,-25.453904526750534,-67.66131479499508
A,A,-37.540179211831756,-68.28136542499972
A,K,-55.82009492298849,-60.43163131116132
A,Y,-40.22121513818548,-53.51794622693051
A,A,-29.193137220805458,-62.67782693411507
A,E,-41.673995320505036,-62.856847180520205
A,T,-45.90474478811112,-68.59017952065264
A,M,-46.75253584746121,-53.930664659322915
A,D,-43.60126797943753,-57.219881186378906
A,R,-65.02857095969154,-60.73156851253887
A,E,-36.47536783407212,-47.46628403961992
A,F,-45.20437675627805,-68.63911330209456
A,R,-44.417309827183345,-62.768302837691124
A,K,-55.966087438336686,-58.238596266542935
A,W,-33.611033026618166,-60.316646398555925
A,M,-35.51483831097108,-70.06864874074144
A,K,-52.17956303112179,-64.96706846400369
A,W,-46.77950014497908,-44.71185114060337
A,Y,-10.049891173379672,-82.96658228000744
A,G,47.299411791414904,69.15662857453991
A,K,144.96080831277314,-122.72395185146632
A,K,151.29312037528837,-93.57495890699263
A,H,164.02886383956113,-136.21869031723665
A,A,166.06703855617627,-78.64872383699223
A,E,144.69145450217854,-66.3586601414358
A,Y,151.6372544579442,-157.2164087039422
A,T,134.23282316976113,-138.87993691466562
A,L,106.44649742818297,-105.9835571145793
A,E,166.4662355713948,-98.58963567811233
A,R,142.17794939336332,-105.65712065010035
A,G,169.8875526229382,160.76381506038146
A,D,123.73301687705613,-112.38571587899705
A,F,-12.94498986426417,-73.95949116501184
A,L,5.297537851757186,-86.94236993548239
A,S,168.71792352292627,-83.56110563095181
A,E,-41.91775463703599,-63.96293199871144
A,E,-43.534438321819444,-57.35625696175976
A,W,-16.143699914444493,-71.86055031509976
A,R,-60.14588854062189,-54.687043243356804
A,E,-25.30092600615083,-77.25142803053144
A,R,-54.465017597609176,-54.712758070068645
A,I,-39.73828288226124,-58.41702325797334
A,A,-34.54713947912854,-56.802016252176564
A,N,-2.963204790617003,-99.31948709950451
A,T,132.32310040423792,-76.53763241138122
A,S,-26.058888180450488,-91.80774861447851
A,V,119.97435524041768,-128.27209944646333
A,I,126.17475301245183,-120.25108114118363
A,F,133.6021912812194,-108.00952150326931
A,V,112.57067422278085,-150.0922993613201
A,N,86.38016911883933,-84.68373911034129
A,N,10.817521365278125,-97.6905718838775
A,F,-35.92571260400613,-52.63483469950188
A,A,21.65243715233854,-113.03389652859168
A,F,-36.274563394705744,-77.10586992570886
A,G,156.14945135822074,82.83740139436212
A,P,-31.99818734801363,-56.689315211871346
A,E,-43.96487273050598,-72.24138408747362
A,V,-40.12627797395189,-64.48744326259909
A,D,-50.48717534876932,-52.880197196097775
A,H,-48.12593592815828,-54.76158386148424
A,Q,-40.162077757807985,-60.624777838894204
A,L,-41.69658508433011,-65.28113008664569
A,K,-45.25624120048625,-49.915417268628495
A,E,-52.8108121357853,-56.467894366863476
A,R,-31.044703884526008,-62.60968258326382
A,F,-28.59356534654767,-68.10867658281748
A,A,-33.3381462058217,-57.67099302594247
A,N,6.751571512983989,-78.68019648563717
A,M,147.58345677809817,-78.29249191690886
A,K,169.9458942234587,-65.24003964126307
A,E,144.02819713007835,-72.36339570817424
A,G,-28.524963730824002,89.84332124118342
A,G,140.73669059195484,-39.58333760989311
A,R,144.79128497799232,-121.87428378892882
A,I,125.61477353356923,-131.7529085043331
A,V,127.3376172259012,-117.67159303145723
A,S,170.42972616533325,-144.7855617736732
A,S,-22.072653395673782,-85.9078264998435
A,K,136.81132222575462,-127.42392115778635
A,P,144.48586606400707,-71.69453181027374
A,F,-8.54490589019567,-93.8307580445848
A,A,144.87767763478385,-150.83196444209517
A,P,154.56571753350292,-61.58957978781746
A,L,-49.82333335515322,-78.4791443363937
A,N,85.35022216757329,-78.04008878955628
A,F,104.31229750298189,-128.86968461100872
A,R,126.82335102402872,-105.79441024211425
A,I,123.0798312810893,-72.91658732248948
A,N,-175.7728931433131,-124.1669928128091
A,S,-7.029662024096891,-82.4713412851514
A,R,-6.014749282107214,-97.73119504860495
A,N,18.198925180015877,-118.87436363840013
A,L,-23.871409745249455,-65.44574380838988
A,S,8.101196455870106,-95.94155541894001
A,D,142.1687922029139,-76.5242946689936
A,I,-38.44822384058674,-53.98336148898548
A,G,-36.948705126045056,-32.49275598148644
A,T,-29.861608082435783,-65.99329736670684
A,I,5.429779591853786,-106.08846545884842
A,M,135.75004858115955,-139.52502194516853
A,R,130.65829698590113,-72.75806429216577
A,V,99.32742665598471,-125.79780785347263
A,V,155.8917778367012,-101.17516465891771
A,E,123.64729706921815,-96.55544542864001
A,L,143.21370008225122,-88.14176897812328
A,S,123.5842124278099,-56.1170546495501
A,P,167.57271836510265,-77.77573721603433
A,L,124.54822386749879,-82.15397111623045
A,K,125.93423576896073,-48.57936554368108
A,G,-21.3651219585005,102.96986316754239
A,S,139.37945089121305,-79.30144515570123
A,V,153.2453029493889,-127.37644247961055
A,S,177.13502406883202,-80.40654445061405
A,W,-8.871244166092078,-68.81182129736095
A,T,21.551750741236226,-96.68969501007673
A,G,34.10252804147781,53.32774579436636
A,K,136.5081669591795,-120.24294372530451
A,P,125.92953133024201,-52.08937507437874
A,V,176.30485433090004,-72.25997495984824
A,S,142.36034235374575,-160.99844555055748
A,Y,154.03446811965,-140.57855015464008
A,Y,132.16084535968042,-128.7732532165271
A,L,121.34802424309265,-108.18458590433775
A,H,122.72287813582041,-113.20883980665474
A,T,125.81795475311603,-113.44252394489399
A,I,107.74358945667802,-61.809098777732
A,D,98.2090287255238,-137.46798961507588
A,R,-22.630796975318596,-73.77402610860905
A,T,-11.59908389530604,-55.41822785504111
A,I,-43.511705554608334,-66.44820291863809
A,L,-55.03088885631376,-65.42712739575038
A,E,-40.2068897588143,-44.971254858540014
A,N,-37.985182016582556,-62.75172674382311
A,Y,-29.610722821331702,-72.67083814002419
A,F,50.44315277853455,-87.20809077699654
A,S,-37.76773130088541,-158.26693803779204
A,S,-14.987582394944667,-61.67361766805262
A,L,-26.09732202205811,-99.25285219437106
A,K,31.105437964842285,-86.26912935038078
